Data from 10SS06MI_072217_1b_Absorbance_19-09-35-898.txt Node
Date: Fri Jul 28 19:09:35 MDT 2017
User: Tank Lab
Spectrometer: FLMS01220
Trigger mode: 0
Integration Time (sec): 1.000000E-1
Scans to average: 10
Electric dark correction enabled: true
Nonlinearity correction enabled: false
Boxcar width: 1
XAxis mode: Wavelengths
Number of Pixels in Spectrum: 2048
>>>>>Begin Spectral Data<<<<<
179.47	0.8685
179.856	0.8685
180.241	0.8685
180.626	0.301
181.011	0.8202
181.396	-0.2218
181.781	-0.0901
182.166	-0
182.551	0.4198
182.936	0.518
183.321	-0
183.706	-0.0375
184.091	-0.5181
184.476	-0.6569
184.86	0.1805
185.245	-0.7243
185.63	0.2777
186.015	-0
186.399	-0
186.784	0.4867
187.169	0.2067
187.553	0.1069
187.938	-0
188.322	0.0831
188.707	0.102
189.091	0.0895
189.475	0.1705
189.86	0.2017
190.244	0.3042
190.629	0.2866
191.013	0.3392
191.397	0.3927
191.781	0.4742
192.165	0.541
192.55	0.5443
192.934	0.5817
193.318	0.5792
193.702	0.6462
194.086	0.6655
194.47	0.6891
194.854	0.6957
195.238	0.7036
195.622	0.7572
196.006	0.7581
196.389	0.7652
196.773	0.7578
197.157	0.7704
197.541	0.7885
197.924	0.7565
198.308	0.7436
198.692	0.7318
199.075	0.7433
199.459	0.7441
199.843	0.736
200.226	0.737
200.61	0.7573
200.993	0.7469
201.376	0.7402
201.76	0.7199
202.143	0.7293
202.527	0.7122
202.91	0.7058
203.293	0.7027
203.676	0.7132
204.059	0.7133
204.443	0.7135
204.826	0.7091
205.209	0.7101
205.592	0.7068
205.975	0.6991
206.358	0.692
206.741	0.678
207.124	0.6914
207.507	0.6844
207.89	0.6868
208.273	0.6741
208.655	0.6674
209.038	0.6617
209.421	0.6535
209.804	0.6544
210.186	0.6589
210.569	0.6573
210.951	0.6589
211.334	0.6521
211.717	0.653
212.099	0.6478
212.482	0.6439
212.864	0.6384
213.246	0.6383
213.629	0.633
214.011	0.6296
214.393	0.6231
214.776	0.6228
215.158	0.6201
215.54	0.6173
215.922	0.6137
216.305	0.6113
216.687	0.607
217.069	0.6014
217.451	0.5923
217.833	0.5917
218.215	0.5927
218.597	0.5907
218.979	0.5832
219.361	0.5727
219.742	0.568
220.124	0.5671
220.506	0.5668
220.888	0.5613
221.27	0.5575
221.651	0.5535
222.033	0.5532
222.415	0.5475
222.796	0.5424
223.178	0.5384
223.559	0.5332
223.941	0.5296
224.322	0.525
224.704	0.5204
225.085	0.5143
225.466	0.5118
225.848	0.5084
226.229	0.5069
226.61	0.5045
226.992	0.5037
227.373	0.5011
227.754	0.4973
228.135	0.4919
228.516	0.4898
228.897	0.4869
229.278	0.4858
229.659	0.4827
230.04	0.4779
230.421	0.4718
230.802	0.4677
231.183	0.4663
231.564	0.466
231.944	0.4629
232.325	0.4574
232.706	0.4518
233.087	0.4494
233.467	0.4484
233.848	0.4495
234.229	0.4478
234.609	0.4474
234.99	0.4452
235.37	0.4424
235.751	0.4362
236.131	0.4316
236.511	0.4299
236.892	0.4289
237.272	0.4267
237.652	0.4241
238.033	0.423
238.413	0.4219
238.793	0.42
239.173	0.4174
239.553	0.413
239.933	0.4106
240.313	0.4096
240.694	0.4079
241.074	0.4051
241.453	0.4032
241.833	0.4042
242.213	0.4027
242.593	0.398
242.973	0.396
243.353	0.3927
243.732	0.3938
244.112	0.3911
244.492	0.3897
244.872	0.386
245.251	0.3834
245.631	0.384
246.01	0.3825
246.39	0.3806
246.769	0.3796
247.149	0.3785
247.528	0.3787
247.908	0.3757
248.287	0.3743
248.666	0.3724
249.045	0.3711
249.425	0.3716
249.804	0.3694
250.183	0.3699
250.562	0.3672
250.941	0.3665
251.32	0.364
251.699	0.3619
252.078	0.3612
252.457	0.3613
252.836	0.3614
253.215	0.3615
253.594	0.3605
253.973	0.3588
254.352	0.3566
254.731	0.3533
255.109	0.3521
255.488	0.3508
255.867	0.3504
256.245	0.3483
256.624	0.3459
257.002	0.3437
257.381	0.3443
257.759	0.3431
258.138	0.3419
258.516	0.3396
258.895	0.3388
259.273	0.3384
259.651	0.3366
260.03	0.3353
260.408	0.3342
260.786	0.3351
261.164	0.3359
261.542	0.3345
261.921	0.3329
262.299	0.3323
262.677	0.3314
263.055	0.3301
263.433	0.3269
263.811	0.3257
264.188	0.3234
264.566	0.3215
264.944	0.3204
265.322	0.3191
265.7	0.3176
266.077	0.3143
266.455	0.3136
266.833	0.3125
267.21	0.3129
267.588	0.3124
267.966	0.3123
268.343	0.3121
268.721	0.3099
269.098	0.308
269.475	0.3056
269.853	0.3045
270.23	0.3024
270.607	0.302
270.985	0.2998
271.362	0.2986
271.739	0.296
272.116	0.2954
272.494	0.2946
272.871	0.2947
273.248	0.2931
273.625	0.2907
274.002	0.2877
274.379	0.2865
274.756	0.2874
275.132	0.2865
275.509	0.2859
275.886	0.2837
276.263	0.283
276.64	0.2819
277.016	0.2794
277.393	0.278
277.77	0.2747
278.146	0.2741
278.523	0.272
278.899	0.2717
279.276	0.2697
279.652	0.2684
280.029	0.2689
280.405	0.2685
280.782	0.2676
281.158	0.2652
281.534	0.264
281.91	0.2638
282.287	0.2614
282.663	0.261
283.039	0.259
283.415	0.2583
283.791	0.255
284.167	0.2525
284.543	0.2527
284.919	0.2516
285.295	0.2513
285.671	0.2485
286.047	0.2478
286.423	0.2462
286.799	0.2452
287.174	0.2439
287.55	0.2432
287.926	0.2429
288.301	0.2413
288.677	0.2386
289.053	0.2374
289.428	0.2364
289.804	0.2366
290.179	0.2346
290.555	0.2359
290.93	0.2353
291.305	0.2334
291.681	0.2314
292.056	0.2306
292.431	0.2299
292.806	0.2285
293.182	0.2267
293.557	0.2256
293.932	0.2241
294.307	0.2225
294.682	0.2218
295.057	0.2206
295.432	0.2191
295.807	0.218
296.182	0.2166
296.557	0.2167
296.932	0.2158
297.306	0.2143
297.681	0.2125
298.056	0.2114
298.43	0.2116
298.805	0.2098
299.18	0.2084
299.554	0.2075
299.929	0.2089
300.303	0.2072
300.678	0.206
301.052	0.2041
301.427	0.2026
301.801	0.2013
302.175	0.1994
302.55	0.2006
302.924	0.1998
303.298	0.2
303.672	0.1991
304.046	0.1981
304.421	0.197
304.795	0.1953
305.169	0.1964
305.543	0.1939
305.917	0.1926
306.291	0.19
306.664	0.1913
307.038	0.1908
307.412	0.189
307.786	0.1851
308.16	0.1838
308.533	0.1821
308.907	0.1815
309.281	0.1823
309.654	0.1822
310.028	0.183
310.401	0.1817
310.775	0.1802
311.148	0.1794
311.522	0.1791
311.895	0.1801
312.268	0.1793
312.642	0.1759
313.015	0.1747
313.388	0.1727
313.761	0.1736
314.135	0.1719
314.508	0.1729
314.881	0.1722
315.254	0.1716
315.627	0.1707
316	0.1694
316.373	0.1685
316.746	0.1667
317.118	0.1656
317.491	0.165
317.864	0.1652
318.237	0.1648
318.61	0.163
318.982	0.1613
319.355	0.1599
319.727	0.1606
320.1	0.1601
320.473	0.1582
320.845	0.158
321.218	0.1562
321.59	0.1571
321.962	0.1553
322.335	0.1552
322.707	0.1546
323.079	0.1539
323.452	0.1551
323.824	0.1535
324.196	0.1535
324.568	0.151
324.94	0.1507
325.312	0.1498
325.684	0.149
326.056	0.148
326.428	0.146
326.8	0.1439
327.172	0.1435
327.544	0.1417
327.915	0.14
328.287	0.1393
328.659	0.1415
329.031	0.1424
329.402	0.1407
329.774	0.1381
330.145	0.135
330.517	0.1344
330.888	0.133
331.26	0.1344
331.631	0.1336
332.003	0.1335
332.374	0.1329
332.745	0.1321
333.117	0.1318
333.488	0.1302
333.859	0.132
334.23	0.1309
334.601	0.1312
334.972	0.1297
335.343	0.1279
335.714	0.1265
336.085	0.1231
336.456	0.1236
336.827	0.1237
337.198	0.1249
337.569	0.1234
337.94	0.1223
338.31	0.1211
338.681	0.1209
339.052	0.1217
339.422	0.121
339.793	0.1205
340.164	0.119
340.534	0.1196
340.905	0.1177
341.275	0.117
341.645	0.114
342.016	0.1159
342.386	0.1164
342.756	0.1185
343.127	0.1154
343.497	0.1135
343.867	0.1126
344.237	0.1139
344.607	0.1131
344.977	0.1116
345.347	0.1118
345.717	0.1103
346.087	0.1105
346.457	0.1097
346.827	0.1096
347.197	0.1092
347.567	0.1081
347.936	0.111
348.306	0.111
348.676	0.1117
349.046	0.1095
349.415	0.1083
349.785	0.1063
350.154	0.104
350.524	0.1044
350.893	0.1023
351.263	0.1027
351.632	0.1005
352.001	0.1013
352.371	0.1026
352.74	0.1019
353.109	0.1031
353.478	0.1001
353.847	0.1006
354.217	0.0987
354.586	0.0991
354.955	0.1002
355.324	0.0995
355.693	0.0989
356.062	0.0966
356.43	0.0964
356.799	0.0954
357.168	0.094
357.537	0.0935
357.906	0.0928
358.274	0.0929
358.643	0.0922
359.011	0.0913
359.38	0.0905
359.749	0.0896
360.117	0.0904
360.486	0.0911
360.854	0.0909
361.222	0.0896
361.591	0.0885
361.959	0.088
362.327	0.0879
362.695	0.0879
363.064	0.0892
363.432	0.0889
363.8	0.089
364.168	0.087
364.536	0.0863
364.904	0.0845
365.272	0.0847
365.64	0.085
366.008	0.0861
366.376	0.0854
366.743	0.085
367.111	0.0826
367.479	0.0813
367.847	0.0814
368.214	0.0824
368.582	0.0819
368.949	0.0832
369.317	0.0816
369.684	0.0811
370.052	0.0788
370.419	0.0789
370.787	0.0808
371.154	0.0812
371.521	0.0815
371.889	0.08
372.256	0.0784
372.623	0.0795
372.99	0.078
373.357	0.0776
373.724	0.0757
374.091	0.0766
374.458	0.0755
374.825	0.073
375.192	0.0712
375.559	0.071
375.926	0.0715
376.293	0.0715
376.659	0.0712
377.026	0.0715
377.393	0.0711
377.759	0.0716
378.126	0.0717
378.492	0.071
378.859	0.0704
379.225	0.0677
379.592	0.0689
379.958	0.0685
380.325	0.0684
380.691	0.0671
381.057	0.0674
381.423	0.0699
381.79	0.0692
382.156	0.0668
382.522	0.0666
382.888	0.0681
383.254	0.0693
383.62	0.0682
383.986	0.0672
384.352	0.0671
384.718	0.0648
385.084	0.0632
385.449	0.0618
385.815	0.0616
386.181	0.0651
386.547	0.0659
386.912	0.0653
387.278	0.063
387.643	0.0616
388.009	0.0639
388.374	0.0616
388.74	0.0635
389.105	0.06
389.471	0.0609
389.836	0.06
390.201	0.0626
390.566	0.0621
390.932	0.0604
391.297	0.0592
391.662	0.0579
392.027	0.0575
392.392	0.0556
392.757	0.0558
393.122	0.0557
393.487	0.0575
393.852	0.0568
394.217	0.056
394.582	0.0563
394.946	0.0572
395.311	0.058
395.676	0.0568
396.04	0.0558
396.405	0.0566
396.77	0.0571
397.134	0.0559
397.499	0.0558
397.863	0.0546
398.227	0.0576
398.592	0.0534
398.956	0.0536
399.32	0.0509
399.685	0.054
400.049	0.0558
400.413	0.0568
400.777	0.0554
401.141	0.0528
401.505	0.0527
401.869	0.0518
402.233	0.0508
402.597	0.0478
402.961	0.048
403.325	0.0516
403.689	0.0535
404.053	0.0534
404.416	0.0498
404.78	0.0491
405.144	0.0506
405.507	0.0527
405.871	0.0529
406.234	0.0501
406.598	0.0482
406.961	0.0482
407.325	0.0499
407.688	0.0504
408.051	0.0485
408.415	0.0493
408.778	0.0487
409.141	0.0494
409.504	0.0486
409.867	0.0461
410.23	0.0472
410.593	0.0462
410.956	0.0492
411.319	0.0475
411.682	0.0441
412.045	0.0418
412.408	0.0412
412.771	0.0445
413.134	0.0434
413.496	0.0434
413.859	0.0417
414.222	0.0431
414.584	0.0458
414.947	0.0469
415.309	0.0458
415.672	0.0457
416.034	0.0442
416.396	0.0435
416.759	0.0402
417.121	0.0397
417.483	0.0404
417.846	0.0427
418.208	0.0444
418.57	0.0454
418.932	0.041
419.294	0.0417
419.656	0.0408
420.018	0.0435
420.38	0.0411
420.742	0.0407
421.104	0.0414
421.466	0.0427
421.827	0.043
422.189	0.0404
422.551	0.0406
422.912	0.0419
423.274	0.0441
423.636	0.043
423.997	0.0409
424.359	0.0392
424.72	0.0397
425.081	0.0391
425.443	0.0394
425.804	0.0399
426.165	0.0416
426.527	0.041
426.888	0.0373
427.249	0.0362
427.61	0.0378
427.971	0.0387
428.332	0.0372
428.693	0.0359
429.054	0.0362
429.415	0.0375
429.776	0.0339
430.137	0.0342
430.498	0.0345
430.858	0.039
431.219	0.0382
431.58	0.0382
431.94	0.037
432.301	0.0358
432.661	0.0327
433.022	0.0346
433.382	0.0347
433.743	0.0377
434.103	0.0346
434.463	0.0346
434.824	0.033
435.184	0.0345
435.544	0.0355
435.904	0.0378
436.264	0.0369
436.624	0.0379
436.985	0.0355
437.345	0.038
437.704	0.0351
438.064	0.0356
438.424	0.0317
438.784	0.0331
439.144	0.031
439.504	0.0329
439.863	0.0319
440.223	0.0339
440.583	0.0316
440.942	0.031
441.302	0.0292
441.661	0.0295
442.021	0.0322
442.38	0.0328
442.739	0.0335
443.099	0.029
443.458	0.0304
443.817	0.0294
444.176	0.033
444.536	0.0319
444.895	0.0341
445.254	0.0325
445.613	0.0316
445.972	0.0304
446.331	0.0298
446.69	0.0303
447.049	0.0282
447.407	0.029
447.766	0.0295
448.125	0.0329
448.484	0.0329
448.842	0.0327
449.201	0.0302
449.559	0.0305
449.918	0.0326
450.276	0.0329
450.635	0.0333
450.993	0.0308
451.352	0.0314
451.71	0.0303
452.068	0.0291
452.426	0.0266
452.785	0.0289
453.143	0.0293
453.501	0.0323
453.859	0.0279
454.217	0.0289
454.575	0.0242
454.933	0.0256
455.291	0.0261
455.649	0.0278
456.006	0.0274
456.364	0.0249
456.722	0.028
457.079	0.0289
457.437	0.0297
457.795	0.0284
458.152	0.027
458.51	0.0271
458.867	0.0274
459.225	0.0291
459.582	0.0286
459.939	0.0254
460.297	0.0233
460.654	0.0234
461.011	0.025
461.368	0.0264
461.725	0.0257
462.082	0.0252
462.44	0.0228
462.797	0.0228
463.153	0.0235
463.51	0.0256
463.867	0.0265
464.224	0.0289
464.581	0.0319
464.938	0.0329
465.294	0.0314
465.651	0.0312
466.008	0.0298
466.364	0.0296
466.721	0.0258
467.077	0.0228
467.434	0.0224
467.79	0.0228
468.146	0.0237
468.503	0.0227
468.859	0.022
469.215	0.024
469.571	0.0257
469.927	0.0275
470.284	0.0268
470.64	0.0249
470.996	0.0244
471.352	0.0242
471.707	0.0214
472.063	0.0236
472.419	0.0234
472.775	0.0259
473.131	0.0235
473.486	0.0226
473.842	0.0214
474.198	0.0217
474.553	0.0219
474.909	0.0257
475.264	0.025
475.62	0.0258
475.975	0.0216
476.331	0.0216
476.686	0.024
477.041	0.0251
477.396	0.0244
477.752	0.0224
478.107	0.0225
478.462	0.0224
478.817	0.0206
479.172	0.0216
479.527	0.0217
479.882	0.0225
480.237	0.0218
480.591	0.0217
480.946	0.0224
481.301	0.0228
481.656	0.0234
482.01	0.023
482.365	0.0218
482.72	0.0217
483.074	0.021
483.429	0.0211
483.783	0.0215
484.137	0.0205
484.492	0.0202
484.846	0.0196
485.2	0.0217
485.555	0.0228
485.909	0.0216
486.263	0.0198
486.617	0.0188
486.971	0.0198
487.325	0.0197
487.679	0.0168
488.033	0.0191
488.387	0.0207
488.741	0.0232
489.094	0.0219
489.448	0.0199
489.802	0.0201
490.156	0.017
490.509	0.0194
490.863	0.019
491.216	0.0198
491.57	0.0186
491.923	0.0188
492.277	0.0201
492.63	0.0204
492.983	0.0197
493.337	0.0176
493.69	0.017
494.043	0.0173
494.396	0.0191
494.749	0.0196
495.102	0.0186
495.455	0.0179
495.808	0.0186
496.161	0.0205
496.514	0.0201
496.867	0.0183
497.22	0.0176
497.572	0.0178
497.925	0.0182
498.278	0.018
498.63	0.0183
498.983	0.0166
499.335	0.016
499.688	0.0162
500.04	0.0171
500.393	0.017
500.745	0.0172
501.097	0.0158
501.449	0.0174
501.802	0.015
502.154	0.0178
502.506	0.017
502.858	0.0168
503.21	0.0165
503.562	0.0146
503.914	0.0151
504.266	0.0137
504.618	0.0167
504.969	0.0192
505.321	0.0196
505.673	0.0166
506.025	0.0132
506.376	0.0118
506.728	0.0147
507.079	0.0171
507.431	0.0186
507.782	0.0174
508.134	0.0166
508.485	0.0174
508.836	0.0183
509.188	0.0175
509.539	0.0181
509.89	0.0193
510.241	0.0189
510.592	0.0157
510.943	0.0134
511.294	0.0154
511.645	0.0157
511.996	0.0165
512.347	0.0144
512.698	0.0153
513.049	0.0169
513.399	0.0196
513.75	0.0209
514.101	0.0164
514.451	0.0155
514.802	0.0132
515.152	0.0148
515.503	0.0152
515.853	0.0167
516.203	0.0164
516.554	0.0153
516.904	0.0158
517.254	0.0159
517.604	0.0152
517.955	0.0152
518.305	0.0123
518.655	0.0131
519.005	0.0113
519.355	0.0126
519.705	0.0111
520.055	0.0105
520.404	0.0119
520.754	0.0114
521.104	0.0126
521.454	0.0113
521.803	0.0135
522.153	0.0142
522.502	0.0165
522.852	0.0175
523.201	0.0145
523.551	0.0122
523.9	0.0085
524.249	0.0103
524.599	0.0111
524.948	0.0131
525.297	0.0132
525.646	0.012
525.995	0.0097
526.344	0.0108
526.694	0.0136
527.042	0.0155
527.391	0.0112
527.74	0.0095
528.089	0.01
528.438	0.0118
528.787	0.0117
529.135	0.0101
529.484	0.0095
529.833	0.0103
530.181	0.0111
530.53	0.0112
530.878	0.0101
531.227	0.0112
531.575	0.0129
531.923	0.0133
532.271	0.0127
532.62	0.0152
532.968	0.014
533.316	0.0123
533.664	0.013
534.012	0.0152
534.36	0.0185
534.708	0.0157
535.056	0.0117
535.404	0.0127
535.752	0.0112
536.1	0.0126
536.447	0.0104
536.795	0.0108
537.143	0.011
537.49	0.0102
537.838	0.0109
538.185	0.0135
538.533	0.0145
538.88	0.0112
539.228	0.0097
539.575	0.009
539.922	0.0121
540.269	0.0111
540.617	0.0109
540.964	0.0066
541.311	0.0056
541.658	0.0066
542.005	0.0103
542.352	0.0123
542.699	0.0086
543.045	0.0085
543.392	0.0084
543.739	0.0092
544.086	0.0067
544.432	0.0059
544.779	0.0081
545.126	0.0108
545.472	0.0081
545.819	0.0074
546.165	0.0063
546.512	0.0084
546.858	0.0063
547.204	0.0064
547.55	0.0062
547.897	0.009
548.243	0.0089
548.589	0.0089
548.935	0.0079
549.281	0.0089
549.627	0.0099
549.973	0.0066
550.319	0.006
550.665	0.0041
551.01	0.0096
551.356	0.0117
551.702	0.0129
552.048	0.0124
552.393	0.0107
552.739	0.0102
553.084	0.0072
553.43	0.0041
553.775	0.0045
554.12	0.0051
554.466	0.0031
554.811	0.0034
555.156	-0.001
555.502	0.0027
555.847	0.0048
556.192	0.0103
556.537	0.0105
556.882	0.008
557.227	0.0064
557.572	0.0049
557.917	0.0068
558.261	0.0099
558.606	0.0124
558.951	0.0088
559.295	0.0093
559.64	0.0097
559.985	0.0126
560.329	0.0105
560.674	0.0106
561.018	0.0118
561.363	0.0095
561.707	0.0082
562.051	0.0054
562.395	0.0038
562.74	0.0021
563.084	0.0012
563.428	0.004
563.772	0.002
564.116	-0.0005
564.46	-0.002
564.804	0.001
565.148	0.0054
565.492	0.0053
565.835	0.0025
566.179	0.0007
566.523	0.0033
566.866	0.0054
567.21	0.0063
567.554	0.0059
567.897	0.0083
568.24	0.0111
568.584	0.0109
568.927	0.0081
569.271	0.0087
569.614	0.0067
569.957	0.0072
570.3	0.0023
570.643	0.0017
570.986	0.0012
571.329	0.0027
571.672	0.0053
572.015	0.0047
572.358	0.0065
572.701	0.006
573.044	0.0048
573.387	0.0042
573.729	0.0011
574.072	0.0034
574.414	0.0016
574.757	0.0034
575.099	0.0041
575.442	0.0071
575.784	0.0058
576.127	0.0033
576.469	-0.0002
576.811	0.0025
577.153	0.0023
577.496	0.0032
577.838	0.0037
578.18	0.0054
578.522	0.0043
578.864	0.0006
579.206	-0.002
579.548	-0.0004
579.889	-0.0003
580.231	-0.0002
580.573	-0.0029
580.915	-0.0029
581.256	-0.0004
581.598	0.0026
581.939	0.0063
582.281	0.0032
582.622	0.0029
582.964	0.0019
583.305	0.003
583.646	0.0038
583.988	-0.001
584.329	-0.002
584.67	-0.0001
585.011	0.0018
585.352	0.005
585.693	0.0044
586.034	0.0072
586.375	0.0075
586.716	0.0053
587.057	0.0054
587.398	0.0017
587.738	0.0006
588.079	-0.0003
588.42	0.0038
588.76	0.0044
589.101	0.0054
589.441	0.0028
589.782	0.0032
590.122	0.0019
590.463	0.0017
590.803	0.0023
591.143	0.0033
591.483	0.0021
591.823	0.0028
592.164	0.002
592.504	0.0013
592.844	-0.0006
593.184	0.0011
593.523	0.003
593.863	0.0037
594.203	0
594.543	-0.002
594.883	0.001
595.222	0.0011
595.562	-0.0006
595.901	-0.0023
596.241	-0.0025
596.58	0.0007
596.92	0.0016
597.259	0.0043
597.599	0.0037
597.938	-0.001
598.277	0.0007
598.616	0.0023
598.955	0.0048
599.295	0.0029
599.634	-0.0011
599.973	-0.003
600.312	-0.0035
600.65	-0.0007
600.989	0.0056
601.328	0.0079
601.667	0.0032
602.005	0.0018
602.344	0.002
602.683	0.0021
603.021	0.0006
603.36	0.0015
603.698	0.0042
604.037	0.0044
604.375	0.0038
604.713	0.0046
605.052	0.0029
605.39	-0.0005
605.728	-0.0005
606.066	-0.0041
606.404	-0.0054
606.742	-0.0057
607.08	-0.0032
607.418	-0.0008
607.756	-0.0013
608.094	-0.0027
608.431	-0.003
608.769	-0.0031
609.107	0.0012
609.444	0.0008
609.782	0.0027
610.12	0.0011
610.457	0.0004
610.794	0.0009
611.132	0.0013
611.469	0.002
611.806	0.0024
612.144	0.0028
612.481	0.0018
612.818	0.001
613.155	0.0005
613.492	0.0047
613.829	0.0037
614.166	0.0044
614.503	0.0029
614.84	0.0036
615.176	0.0013
615.513	-0.0008
615.85	-0.0041
616.187	-0.0038
616.523	-0.0022
616.86	-0.0016
617.196	-0.0033
617.533	-0.0059
617.869	-0.0014
618.205	0.0015
618.542	0.003
618.878	0.0015
619.214	-0.0005
619.55	-0.0009
619.886	0.0008
620.222	0.0037
620.558	0.0033
620.894	0.0026
621.23	0.0023
621.566	0.0029
621.902	0.001
622.238	0.0016
622.573	0.0034
622.909	0.0031
623.244	0.0001
623.58	-0.0022
623.916	-0.0018
624.251	-0.001
624.586	-0.0006
624.922	-0.0014
625.257	0.0017
625.592	0.0045
625.927	0.0079
626.263	0.0049
626.598	0.0031
626.933	0.0028
627.268	0.0024
627.603	0.0005
627.938	-0.001
628.272	-0.003
628.607	-0.0034
628.942	-0.0052
629.277	0.0003
629.611	0.0002
629.946	-0.0001
630.281	-0.0034
630.615	-0.0009
630.949	0.0031
631.284	0.0033
631.618	-0.0006
631.953	-0.0008
632.287	-0.0011
632.621	0.0043
632.955	0.0028
633.289	0.0074
633.623	0.0045
633.957	0.0051
634.291	-0.0008
634.625	0.001
634.959	0.0003
635.293	0.0019
635.627	-0.0016
635.96	-0.0017
636.294	-0.0024
636.627	-0.0021
636.961	-0.005
637.294	-0.004
637.628	-0.0022
637.961	0.0004
638.295	0.0018
638.628	-0.0015
638.961	-0.0059
639.294	-0.0059
639.628	-0.0016
639.961	0.0034
640.294	0.0033
640.627	0.0007
640.96	-0.0059
641.293	-0.0056
641.625	-0.0085
641.958	-0.0022
642.291	0.0017
642.624	0.0075
642.956	0.0071
643.289	0.0008
643.621	-0.0038
643.954	-0.0071
644.286	-0.009
644.619	-0.0046
644.951	-0.0049
645.283	-0.0001
645.616	-0.003
645.948	0.0007
646.28	0.0005
646.612	0.0055
646.944	0.0119
647.276	0.0141
647.608	0.0101
647.94	0.0082
648.272	0.0066
648.603	0.0085
648.935	0.0076
649.267	0.0067
649.598	0.0059
649.93	-0.002
650.261	0.0002
650.593	0.0034
650.924	0.0055
651.256	0.0033
651.587	-0.0004
651.918	0.0043
652.25	0.0023
652.581	0.0027
652.912	-0.0008
653.243	0.0011
653.574	0.0011
653.905	-0.0021
654.236	-0.0003
654.567	0.0011
654.897	0.0002
655.228	0.0009
655.559	-0.0028
655.89	-0.0003
656.22	-0.0023
656.551	-0.0007
656.881	0.0021
657.212	0.0004
657.542	0.001
657.872	-0.0008
658.203	0.0019
658.533	-0.019
658.863	-0.0181
659.193	-0.009
659.523	-0.0017
659.853	0.0095
660.183	-0.001
660.513	-0.0031
660.843	-0.0017
661.173	0.0024
661.503	-0.0011
661.833	0.0011
662.162	-0.0021
662.492	0.0018
662.822	-0.0057
663.151	-0.0043
663.481	-0.0053
663.81	-0.0046
664.139	-0.0013
664.469	-0.0034
664.798	0.0031
665.127	-0.0013
665.456	0.0007
665.785	0.0035
666.114	0.0047
666.443	0.0072
666.772	0.0052
667.101	0.0035
667.43	-0.0023
667.759	-0.0056
668.088	-0.0044
668.416	-0.0073
668.745	-0.0049
669.074	-0.0081
669.402	-0.009
669.731	-0.013
670.059	-0.0123
670.388	-0.0045
670.716	-0.0031
671.044	0.0014
671.372	0.0022
671.701	0.0011
672.029	0.0013
672.357	-0.0023
672.685	-0.0024
673.013	-0.0046
673.341	-0.0003
673.669	-0.0001
673.996	-0.0022
674.324	-0.0104
674.652	-0.0091
674.98	-0.0053
675.307	0.0007
675.635	-0.0038
675.962	-0.0037
676.29	-0.002
676.617	0.008
676.945	0.0062
677.272	0.0022
677.599	-0.0038
677.926	-0.003
678.253	-0.0014
678.581	0.0013
678.908	-0.0018
679.235	-0.0039
679.561	-0.0009
679.888	0.0033
680.215	0.0061
680.542	0.004
680.869	-0.001
681.195	0.0002
681.522	-0.0006
681.849	0.0012
682.175	-0.0039
682.502	-0.0062
682.828	-0.0042
683.154	-0.0044
683.481	-0.0021
683.807	-0.004
684.133	-0.0006
684.459	-0.0029
684.785	-0.0033
685.111	-0.0051
685.437	-0.0037
685.763	-0.0043
686.089	-0.0056
686.415	-0.0078
686.741	-0.0044
687.067	0.0005
687.392	0.0007
687.718	-0.0012
688.043	-0.0039
688.369	-0.0043
688.694	-0.0011
689.02	-0.0039
689.345	0.0004
689.67	-0.0038
689.996	0.0009
690.321	-0.001
690.646	0.0013
690.971	-0.002
691.296	-0.0021
691.621	-0.0055
691.946	-0.0007
692.271	-0.0046
692.596	0.0025
692.921	0.0014
693.245	0.008
693.57	0.0024
693.895	0.0041
694.219	-0.0021
694.544	-0.0002
694.868	-0.0025
695.193	-0.0005
695.517	0.0004
695.841	-0.0018
696.166	-0.0038
696.49	-0.0064
696.814	-0.0056
697.138	-0.0019
697.462	-0.0051
697.786	-0.0038
698.11	-0.006
698.434	-0.0031
698.758	-0.0017
699.081	0.0003
699.405	0.0004
699.729	-0.0005
700.052	-0.0063
700.376	-0.0043
700.7	-0.0039
701.023	0.0009
701.346	0.0018
701.67	0.0029
701.993	0.0008
702.316	-0.0033
702.639	-0.0049
702.963	-0.0081
703.286	-0.0071
703.609	-0.0072
703.932	-0.0078
704.255	-0.0042
704.578	-0.0025
704.9	0.0016
705.223	0.0006
705.546	-0.0039
705.868	-0.0018
706.191	-0.0047
706.514	-0.004
706.836	-0.005
707.159	-0.0037
707.481	-0.0001
707.803	0.0008
708.126	0.0014
708.448	-0.004
708.77	-0.0039
709.092	-0.0027
709.414	-0.0031
709.736	-0.0077
710.058	-0.0107
710.38	-0.0089
710.702	-0.0076
711.024	-0.0046
711.345	-0.0014
711.667	-0.0004
711.989	0.0025
712.31	0.0037
712.632	0.0034
712.953	0.0017
713.275	-0.0024
713.596	-0.001
713.917	0.0009
714.239	0.0013
714.56	-0.0013
714.881	-0.0058
715.202	-0.0074
715.523	-0.0045
715.844	-0.0017
716.165	-0.0048
716.486	-0.0091
716.807	-0.0097
717.128	-0.0079
717.448	-0.0068
717.769	-0.0092
718.09	-0.0042
718.41	0.0008
718.731	0.0034
719.051	0.0018
719.372	0.0043
719.692	0.001
720.012	-0.0001
720.332	-0.0026
720.653	-0.0013
720.973	-0.0054
721.293	-0.0071
721.613	-0.0066
721.933	-0.0008
722.253	0.0021
722.573	0.0037
722.892	0.0015
723.212	-0.0063
723.532	-0.0109
723.851	-0.0086
724.171	-0.0034
724.491	-0.0058
724.81	-0.0068
725.129	-0.0053
725.449	0.0004
725.768	-0.005
726.087	-0.0105
726.407	-0.01
726.726	-0.0043
727.045	-0.0016
727.364	-0.0057
727.683	-0.0019
728.002	-0.0014
728.321	0.003
728.64	0.0004
728.958	0.0012
729.277	-0.0017
729.596	-0.0022
729.914	-0.0006
730.233	-0.0024
730.551	-0.0037
730.87	-0.007
731.188	-0.0024
731.507	-0.0002
731.825	-0.0006
732.143	-0.0062
732.461	-0.0061
732.779	-0.0024
733.097	-0.0038
733.415	-0.0055
733.733	-0.0119
734.051	-0.0075
734.369	-0.009
734.687	-0.0078
735.005	-0.0051
735.322	-0.0041
735.64	-0.0043
735.957	-0.0027
736.275	0.0005
736.592	0.0021
736.91	-0.0031
737.227	-0.0086
737.544	-0.0106
737.862	-0.0066
738.179	-0.008
738.496	-0.0023
738.813	-0.0069
739.13	-0.0057
739.447	-0.0073
739.764	-0.009
740.081	-0.0081
740.398	-0.0101
740.714	-0.0083
741.031	-0.0048
741.348	-0.0048
741.664	-0.006
741.981	-0.0105
742.297	-0.007
742.614	-0.0045
742.93	0.0006
743.246	-0.0011
743.563	-0.0022
743.879	-0.007
744.195	-0.0053
744.511	-0.0097
744.827	-0.0074
745.143	-0.0075
745.459	-0.01
745.775	-0.0105
746.091	-0.0135
746.406	-0.0092
746.722	-0.0068
747.038	-0.0056
747.353	-0.0032
747.669	-0.0078
747.984	-0.0076
748.3	-0.008
748.615	-0.0119
748.93	-0.0107
749.246	-0.0129
749.561	-0.0095
749.876	-0.0123
750.191	-0.0127
750.506	-0.0121
750.821	-0.0082
751.136	-0.006
751.451	-0.0015
751.766	-0.0024
752.08	-0.0099
752.395	-0.0159
752.71	-0.0186
753.024	-0.0131
753.339	-0.0049
753.653	-0.0022
753.968	-0.0011
754.282	-0.0062
754.596	-0.0028
754.911	-0.0029
755.225	0.0014
755.539	-0.0061
755.853	-0.0054
756.167	-0.0056
756.481	-0.0057
756.795	-0.006
757.109	-0.0058
757.423	-0.0043
757.736	-0.0031
758.05	-0.0101
758.364	-0.0093
758.677	-0.0143
758.991	-0.0105
759.304	-0.0124
759.618	-0.0103
759.931	-0.0111
760.244	-0.0111
760.558	-0.0105
760.871	-0.0108
761.184	-0.0041
761.497	-0.0007
761.81	0.0003
762.123	-0.0081
762.436	-0.0097
762.749	-0.0093
763.062	-0.0063
763.374	-0.008
763.687	-0.0051
764	-0.0053
764.312	0.0003
764.625	-0.0011
764.937	-0.0002
765.25	-0.0032
765.562	-0.0055
765.874	-0.001
766.186	-0.004
766.499	-0.0048
766.811	-0.0118
767.123	-0.0112
767.435	-0.0099
767.747	-0.008
768.059	-0.0054
768.37	-0.0058
768.682	-0.0061
768.994	-0.0116
769.306	-0.012
769.617	-0.0109
769.929	-0.0006
770.24	0.0002
770.552	-0.0004
770.863	-0.0106
771.174	-0.0087
771.486	-0.0083
771.797	-0.0042
772.108	-0.0057
772.419	-0.0024
772.73	-0.0048
773.041	-0.0022
773.352	-0.0043
773.663	-0.0023
773.974	-0.0001
774.285	0.0002
774.595	0.003
774.906	-0
775.217	-0.0013
775.527	-0.0014
775.838	-0.0012
776.148	-0
776.458	-0.0036
776.769	-0.0037
777.079	-0.0047
777.389	-0.0052
777.699	-0.0052
778.009	-0.0054
778.319	-0.0068
778.629	-0.0035
778.939	-0.0009
779.249	0.0068
779.559	0.0027
779.869	-0.0014
780.178	-0.0059
780.488	-0.0059
780.798	-0.0043
781.107	-0.0061
781.417	-0.01
781.726	-0.0135
782.035	-0.0132
782.345	-0.0082
782.654	-0.0083
782.963	-0.0109
783.272	-0.0107
783.581	-0.0121
783.89	-0.0085
784.199	-0.0094
784.508	-0.0105
784.817	-0.0141
785.126	-0.0202
785.434	-0.015
785.743	-0.0062
786.052	0.0014
786.36	-0.0055
786.669	-0.0116
786.977	-0.0149
787.285	-0.0083
787.594	-0.0053
787.902	-0.0035
788.21	-0.0063
788.518	-0.0074
788.826	-0.0051
789.135	0.0015
789.442	0.002
789.75	0.0046
790.058	-0.0035
790.366	-0.0048
790.674	-0.0136
790.981	-0.0084
791.289	-0.0061
791.597	-0.0064
791.904	-0.0095
792.212	-0.0128
792.519	-0.0095
792.826	-0.0113
793.134	-0.0121
793.441	-0.0085
793.748	-0.0016
794.055	0.0013
794.362	-0.004
794.669	-0.0074
794.976	-0.0083
795.283	-0.0113
795.59	-0.0088
795.897	-0.0051
796.203	-0.0035
796.51	-0.0114
796.817	-0.0173
797.123	-0.0113
797.43	-0.0066
797.736	-0.0058
798.042	-0.0077
798.349	-0.0076
798.655	-0.0032
798.961	-0.0066
799.267	-0.0075
799.573	-0.0098
799.879	-0.0139
800.185	-0.0108
800.491	-0.0047
800.797	-0.001
801.103	-0.0023
801.408	-0.009
801.714	-0.0045
802.02	-0.0047
802.325	-0.0039
802.631	-0.0101
802.936	-0.0108
803.242	-0.0138
803.547	-0.0123
803.852	-0.0115
804.157	-0.0086
804.462	-0.0055
804.768	-0.0083
805.073	-0.0062
805.378	-0.0102
805.682	-0.01
805.987	-0.0103
806.292	-0.0046
806.597	0.0029
806.902	0.0006
807.206	-0.0026
807.511	-0.0098
807.815	-0.0114
808.12	-0.01
808.424	-0.0055
808.728	-0.0032
809.033	-0.0017
809.337	-0.008
809.641	-0.0067
809.945	-0.0078
810.249	-0.0031
810.553	-0.0056
810.857	-0.0102
811.161	-0.0087
811.465	-0.0086
811.768	-0.0101
812.072	-0.0165
812.376	-0.0154
812.679	-0.015
812.983	-0.0071
813.286	-0.0149
813.59	-0.0152
813.893	-0.0186
814.196	-0.014
814.499	-0.0066
814.803	-0.0103
815.106	-0.0096
815.409	-0.0095
815.712	-0.0024
816.015	-0.0013
816.318	-0.0067
816.62	-0.0123
816.923	-0.0072
817.226	-0.0101
817.528	-0.0093
817.831	-0.0126
818.133	-0.0088
818.436	-0.0153
818.738	-0.0106
819.041	-0.0099
819.343	0.0043
819.645	-0.0015
819.947	0.0006
820.249	-0.0049
820.551	-0.0074
820.853	-0.0065
821.155	-0.0144
821.457	-0.0061
821.759	-0.013
822.061	-0.0074
822.362	-0.0112
822.664	-0.0094
822.966	-0.0044
823.267	-0.0092
823.569	-0.0025
823.87	-0.0113
824.171	-0.0075
824.473	-0.0135
824.774	-0.0052
825.075	-0.0104
825.376	-0.006
825.677	-0.002
825.978	0.0079
826.279	0.0028
826.58	-0.0013
826.881	-0.0085
827.181	0.0005
827.482	0.0022
827.783	0.0028
828.083	-0.0003
828.384	-0.0124
828.684	-0.0174
828.985	-0.0222
829.285	-0.0159
829.585	-0.0069
829.885	-0.0056
830.185	-0.0066
830.486	-0.0035
830.786	0.0076
831.086	0.0071
831.385	-0.0007
831.685	-0.0175
831.985	-0.0204
832.285	-0.0233
832.585	-0.0169
832.884	-0.0089
833.184	-0.0064
833.483	-0.0118
833.783	-0.016
834.082	-0.0137
834.381	-0.0166
834.681	-0.0123
834.98	-0.0049
835.279	0.0073
835.578	-0.0022
835.877	-0.0089
836.176	-0.0138
836.475	-0.006
836.774	-0.0126
837.072	-0.0092
837.371	-0.0063
837.67	-0.0001
837.968	0.0007
838.267	-0.0056
838.565	-0.0074
838.864	-0.0151
839.162	-0.0153
839.46	-0.0156
839.759	-0.0118
840.057	-0.0158
840.355	-0.0146
840.653	-0.0088
840.951	-0.0013
841.249	0.0021
841.547	0.0037
841.845	0.0054
842.142	0.0153
842.44	-0.0021
842.738	-0.0134
843.035	-0.0342
843.333	-0.0246
843.63	-0.0229
843.928	-0.0061
844.225	-0.0017
844.522	0.0063
844.82	-0.0101
845.117	-0.0114
845.414	-0.0111
845.711	-0.002
846.008	-0.0032
846.305	-0.0143
846.602	-0.0228
846.898	-0.0146
847.195	-0.0076
847.492	-0.0007
847.788	-0.0157
848.085	-0.0173
848.382	-0.0212
848.678	-0.023
848.974	-0.0193
849.271	-0.0072
849.567	-0.0031
849.863	-0.0062
850.159	-0.0184
850.455	-0.0152
850.751	-0.0071
851.047	-0.0062
851.343	-0.01
851.639	-0.0091
851.935	-0.0044
852.23	0.0027
852.526	-0.0072
852.822	-0.0159
853.117	-0.0158
853.413	-0.0145
853.708	-0.0197
854.003	-0.0103
854.299	-0.0072
854.594	-0.0008
854.889	-0.0095
855.184	0.0009
855.479	0.0209
855.774	0.0248
856.069	0.005
856.364	-0.0165
856.659	-0.0203
856.954	-0.0017
857.248	0.0054
857.543	0.0039
857.837	-0.0132
858.132	-0.0107
858.426	-0.0208
858.721	-0.0173
859.015	-0.0189
859.309	-0.0191
859.604	-0.0154
859.898	-0.0021
860.192	0.006
860.486	0.0004
860.78	-0.0141
861.074	-0.0044
861.367	0.0034
861.661	0.004
861.955	0.0028
862.248	0.0019
862.542	-0.0024
862.836	-0.0042
863.129	-0.0166
863.422	-0.0065
863.716	-0.0113
864.009	0.0127
864.302	0.0055
864.595	-0.0001
864.889	-0.0137
865.182	-0.0079
865.475	-0.0052
865.767	-0.0185
866.06	-0.0154
866.353	-0.0108
866.646	-0.0051
866.938	0.0087
867.231	0.0108
867.524	0.0328
867.816	0.0287
868.109	0.0426
868.401	0.0398
868.693	0.0305
868.985	0.0024
869.278	-0.0072
869.57	-0.0198
869.862	-0.0224
870.154	-0.0297
870.446	-0.0293
870.738	-0.0298
871.029	-0.0461
871.321	-0.0351
871.613	-0.0154
871.904	0.0008
872.196	-0.0094
872.487	-0.0129
872.779	-0.0193
873.07	-0.0185
873.362	-0.0324
873.653	-0.0035
873.944	-0.0122
874.235	-0.0079
874.526	-0.0272
874.817	-0.036
875.108	-0.016
875.399	-0.0005
875.69	0.0292
875.981	0.0052
876.271	-0.0146
876.562	-0.0177
876.853	-0.0211
877.143	-0.0148
877.434	-0.0246
877.724	-0.0269
878.014	-0.007
878.305	-0.0029
878.595	0.0187
878.885	0.0162
879.175	0.0104
879.465	0.0134
879.755	0.029
880.045	0.0172
880.335	-0.0162
880.624	-0.0606
880.914	-0.0606
