Data from 13SS02MU_071317_1b_Absorbance_21-10-27-488.txt Node
Date: Tue Jul 18 21:10:27 MDT 2017
User: Tank Lab
Spectrometer: FLMS01220
Trigger mode: 0
Integration Time (sec): 1.000000E-1
Scans to average: 10
Electric dark correction enabled: true
Nonlinearity correction enabled: false
Boxcar width: 1
XAxis mode: Wavelengths
Number of Pixels in Spectrum: 2048
>>>>>Begin Spectral Data<<<<<
179.47	-0.2346
179.856	-0.2346
180.241	0.1956
180.626	0.4227
181.011	-0
181.396	0.1633
181.781	0.3654
182.166	-0.1887
182.551	0.6336
182.936	-0
183.321	-0
183.706	-0.2188
184.091	0.4193
184.476	0.5867
184.86	-0
185.245	-0
185.63	0.2536
186.015	-0
186.399	-0
186.784	0.2828
187.169	0.2561
187.553	0.1439
187.938	0.0524
188.322	0.2598
188.707	0.3201
189.091	0.3194
189.475	0.3926
189.86	0.3686
190.244	0.3862
190.629	0.3815
191.013	0.4444
191.397	0.5225
191.781	0.5276
192.165	0.5453
192.55	0.5799
192.934	0.6853
193.318	0.7361
193.702	0.7648
194.086	0.7833
194.47	0.8384
194.854	0.8982
195.238	0.9154
195.622	0.9457
196.006	0.9656
196.389	0.9904
196.773	1.0289
197.157	1.0277
197.541	1.0221
197.924	1.0145
198.308	0.9915
198.692	0.9659
199.075	0.9454
199.459	0.9636
199.843	1.0182
200.226	1.0107
200.61	1.0285
200.993	1.0044
201.376	1.0137
201.76	1.0213
202.143	1.0461
202.527	1.0714
202.91	1.0539
203.293	1.0609
203.676	1.0504
204.059	1.0488
204.443	1.0707
204.826	1.0919
205.209	1.0957
205.592	1.0549
205.975	1.0598
206.358	1.0678
206.741	1.0709
207.124	1.0567
207.507	1.0629
207.89	1.0661
208.273	1.0771
208.655	1.072
209.038	1.0779
209.421	1.067
209.804	1.1013
210.186	1.0989
210.569	1.1032
210.951	1.0804
211.334	1.0763
211.717	1.094
212.099	1.0998
212.482	1.1089
212.864	1.0966
213.246	1.0873
213.629	1.081
214.011	1.073
214.393	1.0744
214.776	1.0701
215.158	1.0721
215.54	1.0673
215.922	1.0888
216.305	1.105
216.687	1.1049
217.069	1.0985
217.451	1.0834
217.833	1.0844
218.215	1.0794
218.597	1.0809
218.979	1.0766
219.361	1.0629
219.742	1.0541
220.124	1.0522
220.506	1.0533
220.888	1.0524
221.27	1.0589
221.651	1.0552
222.033	1.0521
222.415	1.041
222.796	1.0441
223.178	1.0454
223.559	1.0425
223.941	1.0421
224.322	1.0395
224.704	1.0441
225.085	1.0356
225.466	1.0254
225.848	1.0119
226.229	1.0108
226.61	1.0081
226.992	1.0105
227.373	1.007
227.754	1.0032
228.135	0.9974
228.516	0.9984
228.897	1.0009
229.278	0.9971
229.659	0.9855
230.04	0.9838
230.421	0.9772
230.802	0.9684
231.183	0.9604
231.564	0.9639
231.944	0.9704
232.325	0.969
232.706	0.9605
233.087	0.9553
233.467	0.9562
233.848	0.9549
234.229	0.9589
234.609	0.9493
234.99	0.9443
235.37	0.9357
235.751	0.9321
236.131	0.9354
236.511	0.9315
236.892	0.9286
237.272	0.9237
237.652	0.9184
238.033	0.9157
238.413	0.9107
238.793	0.9079
239.173	0.9039
239.553	0.9005
239.933	0.8978
240.313	0.8955
240.694	0.8876
241.074	0.8806
241.453	0.8754
241.833	0.8733
242.213	0.8711
242.593	0.8712
242.973	0.867
243.353	0.8639
243.732	0.8585
244.112	0.8534
244.492	0.8523
244.872	0.8479
245.251	0.8471
245.631	0.8434
246.01	0.8381
246.39	0.8385
246.769	0.8326
247.149	0.8301
247.528	0.8248
247.908	0.8221
248.287	0.8197
248.666	0.8137
249.045	0.8111
249.425	0.8101
249.804	0.8106
250.183	0.811
250.562	0.8062
250.941	0.8041
251.32	0.7986
251.699	0.7976
252.078	0.7935
252.457	0.794
252.836	0.7896
253.215	0.7861
253.594	0.7815
253.973	0.7795
254.352	0.7792
254.731	0.777
255.109	0.7769
255.488	0.7739
255.867	0.769
256.245	0.7683
256.624	0.7644
257.002	0.7644
257.381	0.7592
257.759	0.7596
258.138	0.7587
258.516	0.756
258.895	0.754
259.273	0.7481
259.651	0.7461
260.03	0.7441
260.408	0.743
260.786	0.7425
261.164	0.7379
261.542	0.7364
261.921	0.7309
262.299	0.7267
262.677	0.7248
263.055	0.7228
263.433	0.7213
263.811	0.7195
264.188	0.7155
264.566	0.7138
264.944	0.7089
265.322	0.711
265.7	0.708
266.077	0.7087
266.455	0.7028
266.833	0.7014
267.21	0.6971
267.588	0.6918
267.966	0.6878
268.343	0.6843
268.721	0.6817
269.098	0.6809
269.475	0.6778
269.853	0.6777
270.23	0.6725
270.607	0.6729
270.985	0.6705
271.362	0.6674
271.739	0.6609
272.116	0.6547
272.494	0.6515
272.871	0.6471
273.248	0.6478
273.625	0.6423
274.002	0.6391
274.379	0.6332
274.756	0.6309
275.132	0.6275
275.509	0.6269
275.886	0.6247
276.263	0.6239
276.64	0.6188
277.016	0.6154
277.393	0.6116
277.77	0.6067
278.146	0.603
278.523	0.5985
278.899	0.5971
279.276	0.5948
279.652	0.5932
280.029	0.5917
280.405	0.5881
280.782	0.5854
281.158	0.5825
281.534	0.5808
281.91	0.5794
282.287	0.5738
282.663	0.5697
283.039	0.5661
283.415	0.5641
283.791	0.5636
284.167	0.5602
284.543	0.5578
284.919	0.5541
285.295	0.5517
285.671	0.5496
286.047	0.5474
286.423	0.5443
286.799	0.5416
287.174	0.5411
287.55	0.5379
287.926	0.5358
288.301	0.5306
288.677	0.528
289.053	0.5245
289.428	0.5208
289.804	0.517
290.179	0.516
290.555	0.5158
290.93	0.5158
291.305	0.5109
291.681	0.507
292.056	0.5052
292.431	0.505
292.806	0.5046
293.182	0.5019
293.557	0.4981
293.932	0.4958
294.307	0.4904
294.682	0.488
295.057	0.4841
295.432	0.4821
295.807	0.4785
296.182	0.4742
296.557	0.4739
296.932	0.4718
297.306	0.4704
297.681	0.4649
298.056	0.4629
298.43	0.4628
298.805	0.4628
299.18	0.4615
299.554	0.4572
299.929	0.4562
300.303	0.4536
300.678	0.4533
301.052	0.4509
301.427	0.4499
301.801	0.4457
302.175	0.4431
302.55	0.4402
302.924	0.4376
303.298	0.4326
303.672	0.4306
304.046	0.4304
304.421	0.4294
304.795	0.4269
305.169	0.4237
305.543	0.4221
305.917	0.4176
306.291	0.4169
306.664	0.4152
307.038	0.4139
307.412	0.4107
307.786	0.4085
308.16	0.4081
308.533	0.4057
308.907	0.4047
309.281	0.4019
309.654	0.4
310.028	0.3983
310.401	0.3979
310.775	0.3968
311.148	0.3933
311.522	0.3906
311.895	0.3874
312.268	0.3839
312.642	0.3815
313.015	0.3806
313.388	0.3786
313.761	0.3771
314.135	0.3731
314.508	0.3727
314.881	0.3697
315.254	0.3678
315.627	0.3645
316	0.3627
316.373	0.3625
316.746	0.361
317.118	0.3596
317.491	0.355
317.864	0.3538
318.237	0.3529
318.61	0.3546
318.982	0.3531
319.355	0.351
319.727	0.3469
320.1	0.3458
320.473	0.3455
320.845	0.3437
321.218	0.3419
321.59	0.3379
321.962	0.3349
322.335	0.3315
322.707	0.3292
323.079	0.3312
323.452	0.3289
323.824	0.3285
324.196	0.3267
324.568	0.3273
324.94	0.3234
325.312	0.3216
325.684	0.3206
326.056	0.3201
326.428	0.3161
326.8	0.3106
327.172	0.3087
327.544	0.3068
327.915	0.3087
328.287	0.3069
328.659	0.3066
329.031	0.3032
329.402	0.3021
329.774	0.2998
330.145	0.2997
330.517	0.2958
330.888	0.2944
331.26	0.29
331.631	0.2899
332.003	0.2869
332.374	0.286
332.745	0.2854
333.117	0.2832
333.488	0.2847
333.859	0.2808
334.23	0.2812
334.601	0.2764
334.972	0.276
335.343	0.2744
335.714	0.2735
336.085	0.2729
336.456	0.2724
336.827	0.2695
337.198	0.268
337.569	0.2647
337.94	0.2651
338.31	0.263
338.681	0.2639
339.052	0.2612
339.422	0.2578
339.793	0.2562
340.164	0.2559
340.534	0.2546
340.905	0.252
341.275	0.2514
341.645	0.2521
342.016	0.2496
342.386	0.2473
342.756	0.2438
343.127	0.2422
343.497	0.24
343.867	0.2401
344.237	0.2384
344.607	0.2367
344.977	0.2353
345.347	0.2338
345.717	0.2338
346.087	0.2327
346.457	0.2326
346.827	0.2302
347.197	0.2269
347.567	0.2247
347.936	0.2254
348.306	0.2263
348.676	0.2273
349.046	0.2254
349.415	0.2246
349.785	0.2213
350.154	0.2172
350.524	0.2158
350.893	0.2145
351.263	0.2139
351.632	0.2109
352.001	0.2121
352.371	0.212
352.74	0.2119
353.109	0.2088
353.478	0.208
353.847	0.2052
354.217	0.205
354.586	0.202
354.955	0.2021
355.324	0.2016
355.693	0.2005
356.062	0.2013
356.43	0.1995
356.799	0.1993
357.168	0.1979
357.537	0.1949
357.906	0.1943
358.274	0.1908
358.643	0.1888
359.011	0.1872
359.38	0.185
359.749	0.1842
360.117	0.183
360.486	0.1816
360.854	0.1824
361.222	0.1799
361.591	0.1809
361.959	0.179
362.327	0.1808
362.695	0.178
363.064	0.1759
363.432	0.1717
363.8	0.1736
364.168	0.1736
364.536	0.1726
364.904	0.1685
365.272	0.1663
365.64	0.1664
366.008	0.1679
366.376	0.168
366.743	0.1652
367.111	0.1637
367.479	0.1622
367.847	0.1627
368.214	0.1596
368.582	0.1595
368.949	0.158
369.317	0.1582
369.684	0.1573
370.052	0.1576
370.419	0.1575
370.787	0.1549
371.154	0.1522
371.521	0.1513
371.889	0.1496
372.256	0.1497
372.623	0.1468
372.99	0.1456
373.357	0.1437
373.724	0.1452
374.091	0.1428
374.458	0.1407
374.825	0.1361
375.192	0.1368
375.559	0.137
375.926	0.1394
376.293	0.1418
376.659	0.1411
377.026	0.1382
377.393	0.1365
377.759	0.1357
378.126	0.1368
378.492	0.1367
378.859	0.1357
379.225	0.1327
379.592	0.1305
379.958	0.1297
380.325	0.1303
380.691	0.1283
381.057	0.1286
381.423	0.1274
381.79	0.1272
382.156	0.1276
382.522	0.1266
382.888	0.1249
383.254	0.1207
383.62	0.1209
383.986	0.1218
384.352	0.1217
384.718	0.1209
385.084	0.1226
385.449	0.1242
385.815	0.1221
386.181	0.1186
386.547	0.1148
386.912	0.112
387.278	0.1102
387.643	0.1101
388.009	0.1123
388.374	0.1129
388.74	0.1115
389.105	0.1108
389.471	0.1102
389.836	0.1103
390.201	0.1086
390.566	0.1061
390.932	0.1055
391.297	0.1055
391.662	0.1057
392.027	0.1051
392.392	0.1028
392.757	0.102
393.122	0.1017
393.487	0.1012
393.852	0.0995
394.217	0.0985
394.582	0.1011
394.946	0.1023
395.311	0.1024
395.676	0.1034
396.04	0.1004
396.405	0.099
396.77	0.0958
397.134	0.0979
397.499	0.0971
397.863	0.093
398.227	0.091
398.592	0.0905
398.956	0.0927
399.32	0.0928
399.685	0.0929
400.049	0.0932
400.413	0.0937
400.777	0.0917
401.141	0.0942
401.505	0.0938
401.869	0.0925
402.233	0.0851
402.597	0.0823
402.961	0.0815
403.325	0.0846
403.689	0.0842
404.053	0.085
404.416	0.0819
404.78	0.0822
405.144	0.0819
405.507	0.0813
405.871	0.0795
406.234	0.081
406.598	0.0814
406.961	0.0817
407.325	0.0803
407.688	0.0794
408.051	0.08
408.415	0.0795
408.778	0.0792
409.141	0.0753
409.504	0.0759
409.867	0.0748
410.23	0.0753
410.593	0.0731
410.956	0.0756
411.319	0.0768
411.682	0.0786
412.045	0.0774
412.408	0.0751
412.771	0.0734
413.134	0.0708
413.496	0.0728
413.859	0.0715
414.222	0.0718
414.584	0.0697
414.947	0.0706
415.309	0.0706
415.672	0.0708
416.034	0.0701
416.396	0.0713
416.759	0.0739
417.121	0.073
417.483	0.074
417.846	0.0719
418.208	0.0719
418.57	0.0701
418.932	0.0687
419.294	0.0697
419.656	0.0685
420.018	0.0695
420.38	0.0667
420.742	0.0658
421.104	0.0628
421.466	0.0605
421.827	0.0614
422.189	0.0622
422.551	0.0643
422.912	0.064
423.274	0.0634
423.636	0.0624
423.997	0.0625
424.359	0.0626
424.72	0.0647
425.081	0.0616
425.443	0.0601
425.804	0.0584
426.165	0.0584
426.527	0.057
426.888	0.0574
427.249	0.0583
427.61	0.0621
427.971	0.0588
428.332	0.0574
428.693	0.053
429.054	0.0533
429.415	0.0541
429.776	0.0535
430.137	0.0557
430.498	0.0541
430.858	0.0581
431.219	0.0577
431.58	0.059
431.94	0.0592
432.301	0.0607
432.661	0.0575
433.022	0.054
433.382	0.0523
433.743	0.0511
434.103	0.0522
434.463	0.0467
434.824	0.0479
435.184	0.0482
435.544	0.0495
435.904	0.0502
436.264	0.0494
436.624	0.0515
436.985	0.052
437.345	0.0502
437.704	0.0489
438.064	0.0496
438.424	0.046
438.784	0.0491
439.144	0.0532
439.504	0.0557
439.863	0.0489
440.223	0.0417
440.583	0.0414
440.942	0.0467
441.302	0.048
441.661	0.0486
442.021	0.0446
442.38	0.0442
442.739	0.0447
443.099	0.045
443.458	0.0452
443.817	0.0477
444.176	0.0499
444.536	0.0488
444.895	0.0472
445.254	0.0464
445.613	0.048
445.972	0.0463
446.331	0.0453
446.69	0.0416
447.049	0.0432
447.407	0.044
447.766	0.046
448.125	0.0438
448.484	0.0431
448.842	0.0451
449.201	0.0456
449.559	0.0453
449.918	0.0444
450.276	0.0444
450.635	0.0468
450.993	0.0438
451.352	0.0426
451.71	0.0376
452.068	0.0399
452.426	0.0412
452.785	0.0421
453.143	0.0411
453.501	0.0401
453.859	0.043
454.217	0.0412
454.575	0.0414
454.933	0.0396
455.291	0.0423
455.649	0.0373
456.006	0.0357
456.364	0.0359
456.722	0.0352
457.079	0.0363
457.437	0.0348
457.795	0.0403
458.152	0.0405
458.51	0.0382
458.867	0.0358
459.225	0.0347
459.582	0.0369
459.939	0.0352
460.297	0.0335
460.654	0.0328
461.011	0.035
461.368	0.0378
461.725	0.0385
462.082	0.0401
462.44	0.0432
462.797	0.0423
463.153	0.0415
463.51	0.0374
463.867	0.0394
464.224	0.0354
464.581	0.0322
464.938	0.0294
465.294	0.0332
465.651	0.0342
466.008	0.0349
466.364	0.0314
466.721	0.0329
467.077	0.0338
467.434	0.037
467.79	0.0389
468.146	0.0385
468.503	0.0426
468.859	0.0376
469.215	0.0345
469.571	0.0273
469.927	0.0314
470.284	0.0318
470.64	0.0382
470.996	0.0392
471.352	0.0424
471.707	0.0379
472.063	0.0342
472.419	0.032
472.775	0.0291
473.131	0.035
473.486	0.0355
473.842	0.0369
474.198	0.0328
474.553	0.0343
474.909	0.0357
475.264	0.0374
475.62	0.0384
475.975	0.0373
476.331	0.0353
476.686	0.0321
477.041	0.0311
477.396	0.0331
477.752	0.0357
478.107	0.0363
478.462	0.0324
478.817	0.0315
479.172	0.0332
479.527	0.0357
479.882	0.0338
480.237	0.0327
480.591	0.0316
480.946	0.0316
481.301	0.031
481.656	0.029
482.01	0.0291
482.365	0.0247
482.72	0.028
483.074	0.0295
483.429	0.0333
483.783	0.0311
484.137	0.0336
484.492	0.0341
484.846	0.0343
485.2	0.0264
485.555	0.0226
485.909	0.0245
486.263	0.0292
486.617	0.0295
486.971	0.0286
487.325	0.0311
487.679	0.0359
488.033	0.0311
488.387	0.0361
488.741	0.036
489.094	0.0301
489.448	0.0212
489.802	0.0243
490.156	0.0324
490.509	0.0283
490.863	0.0194
491.216	0.0209
491.57	0.0255
491.923	0.0293
492.277	0.0268
492.63	0.0247
492.983	0.0238
493.337	0.0238
493.69	0.028
494.043	0.026
494.396	0.0244
494.749	0.0217
495.102	0.0219
495.455	0.0246
495.808	0.0227
496.161	0.0266
496.514	0.0254
496.867	0.0273
497.22	0.0233
497.572	0.0211
497.925	0.022
498.278	0.0212
498.63	0.0277
498.983	0.0275
499.335	0.0286
499.688	0.0194
500.04	0.0163
500.393	0.0146
500.745	0.019
501.097	0.0234
501.449	0.0231
501.802	0.0213
502.154	0.0206
502.506	0.0201
502.858	0.0226
503.21	0.0196
503.562	0.0235
503.914	0.0286
504.266	0.031
504.618	0.0245
504.969	0.0224
505.321	0.0167
505.673	0.0214
506.025	0.0201
506.376	0.0245
506.728	0.022
507.079	0.0204
507.431	0.0181
507.782	0.0215
508.134	0.0215
508.485	0.0214
508.836	0.0182
509.188	0.0192
509.539	0.0205
509.89	0.0179
510.241	0.0147
510.592	0.0204
510.943	0.0209
511.294	0.0223
511.645	0.0141
511.996	0.0167
512.347	0.0183
512.698	0.0213
513.049	0.0201
513.399	0.019
513.75	0.0162
514.101	0.0199
514.451	0.0199
514.802	0.023
515.152	0.0207
515.503	0.0223
515.853	0.0189
516.203	0.0162
516.554	0.0155
516.904	0.0198
517.254	0.0215
517.604	0.0219
517.955	0.0189
518.305	0.0221
518.655	0.023
519.005	0.0254
519.355	0.0259
519.705	0.0219
520.055	0.0182
520.404	0.0173
520.754	0.0221
521.104	0.0249
521.454	0.0245
521.803	0.0229
522.153	0.0198
522.502	0.0164
522.852	0.0117
523.201	0.0135
523.551	0.0132
523.9	0.0184
524.249	0.0217
524.599	0.0211
524.948	0.0175
525.297	0.0171
525.646	0.019
525.995	0.0198
526.344	0.0162
526.694	0.019
527.042	0.0176
527.391	0.0187
527.74	0.0174
528.089	0.0183
528.438	0.0197
528.787	0.0176
529.135	0.0176
529.484	0.0194
529.833	0.0205
530.181	0.0194
530.53	0.0166
530.878	0.0156
531.227	0.021
531.575	0.0241
531.923	0.0211
532.271	0.0181
532.62	0.0171
532.968	0.0192
533.316	0.0181
533.664	0.0174
534.012	0.0181
534.36	0.0192
534.708	0.0135
535.056	0.0123
535.404	0.0076
535.752	0.0145
536.1	0.0155
536.447	0.0165
536.795	0.0158
537.143	0.0178
537.49	0.0194
537.838	0.0137
538.185	0.0099
538.533	0.0104
538.88	0.014
539.228	0.014
539.575	0.0156
539.922	0.0172
540.269	0.0254
540.617	0.0222
540.964	0.0163
541.311	0.0119
541.658	0.0147
542.005	0.0202
542.352	0.017
542.699	0.0123
543.045	0.0052
543.392	0.0073
543.739	0.0103
544.086	0.013
544.432	0.0115
544.779	0.013
545.126	0.0142
545.472	0.0135
545.819	0.0113
546.165	0.0107
546.512	0.0136
546.858	0.0156
547.204	0.0166
547.55	0.0144
547.897	0.0136
548.243	0.0087
548.589	0.0103
548.935	0.0065
549.281	0.0101
549.627	0.0094
549.973	0.0151
550.319	0.0136
550.665	0.0145
551.01	0.0085
551.356	0.004
551.702	0.0006
552.048	-0.0018
552.393	0.0077
552.739	0.0107
553.084	0.0179
553.43	0.014
553.775	0.0085
554.12	0.01
554.466	0.0184
554.811	0.0216
555.156	0.0171
555.502	0.0123
555.847	0.0086
556.192	0.0091
556.537	0.0058
556.882	0.0106
557.227	0.0051
557.572	0.0095
557.917	0.0172
558.261	0.0157
558.606	0.0102
558.951	0.001
559.295	-0
559.64	0.0032
559.985	0.0039
560.329	0.0092
560.674	0.0074
561.018	0.0039
561.363	0.0033
561.707	0.0052
562.051	0.0101
562.395	0.0184
562.74	0.018
563.084	0.0173
563.428	0.0142
563.772	0.0159
564.116	0.0138
564.46	0.0107
564.804	0.0138
565.148	0.0073
565.492	0.0098
565.835	0.0097
566.179	0.0203
566.523	0.0131
566.866	0.0043
567.21	0.0012
567.554	0.0067
567.897	0.0118
568.24	0.007
568.584	0.0066
568.927	0.008
569.271	0.0082
569.614	0.0086
569.957	0.0101
570.3	0.0165
570.643	0.0158
570.986	0.0106
571.329	0.016
571.672	0.0178
572.015	0.0177
572.358	0.0142
572.701	0.0174
573.044	0.0103
573.387	0.0081
573.729	0.0086
574.072	0.0159
574.414	0.0179
574.757	0.019
575.099	0.0045
575.442	-0.0041
575.784	0.0086
576.127	0.0234
576.469	0.0224
576.811	0.0085
577.153	0.0072
577.496	0.0102
577.838	0.0116
578.18	-0.0044
578.522	-0.0064
578.864	-0.0085
579.206	0.0194
579.548	0.0193
579.889	0.0063
580.231	0.0167
580.573	0.031
580.915	0.026
581.256	0.0011
581.598	-0.019
581.939	-0.0214
582.281	0.0066
582.622	0.0038
582.964	0.0085
583.305	-0.0054
583.646	0.0057
583.988	0.0489
584.329	0.034
584.67	0.0182
585.011	-0.014
585.352	-0.023
585.693	-0.0084
586.034	-0.0154
586.375	-0.0096
586.716	-0.0029
587.057	0.0066
587.398	0.0253
587.738	0.0326
588.079	0.0205
588.42	0.0119
588.76	-0.0107
589.101	-0.0054
589.441	-0.0099
589.782	0.0045
590.122	0.0146
590.463	0.0144
590.803	0.0023
591.143	0.0021
591.483	-0.0043
591.823	-0.0079
592.164	-0.013
592.504	0.0032
592.844	0.0103
593.184	0.0058
593.523	-0.0056
593.863	-0.0033
594.203	0.0051
594.543	0.0145
594.883	0.006
595.222	0.0117
595.562	0.0295
595.901	0.0301
596.241	0.0166
596.58	-0.0039
596.92	-0.0134
597.259	-0.0181
597.599	-0.0084
597.938	0.0116
598.277	0.0135
598.616	-0.0027
598.955	-0.01
599.295	-0.0058
599.634	0.0097
599.973	0.0155
600.312	0.0196
600.65	0.0068
600.989	0.0052
601.328	0.0107
601.667	0.0357
602.005	0.0178
602.344	0.0072
602.683	0.0016
603.021	0.0074
603.36	-0.0005
603.698	-0.0108
604.037	-0.01
604.375	-0.004
604.713	-0.009
605.052	-0.0031
605.39	-0.0019
605.728	0.0016
606.066	0.0224
606.404	0.024
606.742	0.0177
607.08	0.0042
607.418	-0.0072
607.756	0.0016
608.094	0.0083
608.431	0.0157
608.769	0.0229
609.107	0.0022
609.444	0.0098
609.782	-0.0035
610.12	0.0131
610.457	0.0043
610.794	-0.0106
611.132	-0.0134
611.469	-0.0128
611.806	-0.0044
612.144	-0.012
612.481	-0.0023
612.818	0.0118
613.155	0.0015
613.492	-0.0065
613.829	-0.0087
614.166	0.0092
614.503	0.0091
614.84	0.0021
615.176	-0.0009
615.513	0.0021
615.85	0.0045
616.187	0.0092
616.523	0.0013
616.86	-0.002
617.196	0.0046
617.533	0.0249
617.869	0.0185
618.205	0.0063
618.542	-0.0135
618.878	-0.018
619.214	-0.0071
619.55	0.0007
619.886	0.0069
620.222	-0.0095
620.558	-0.0026
620.894	0.0088
621.23	0.0095
621.566	0.0023
621.902	-0.0046
622.238	-0.0069
622.573	0.0118
622.909	0.0032
623.244	0.0075
623.58	-0.0151
623.916	-0.0174
624.251	-0.0023
624.586	0.0201
624.922	0.0275
625.257	0.0062
625.592	-0.01
625.927	-0.006
626.263	-0.0029
626.598	0.0011
626.933	0.0003
627.268	0.006
627.603	-0.0043
627.938	-0.0158
628.272	-0.0127
628.607	-0.0083
628.942	-0.0008
629.277	-0.0073
629.611	0.0014
629.946	0.0124
630.281	0.0083
630.615	0.0056
630.949	-0.0107
631.284	-0.0071
631.618	0.0013
631.953	0.0118
632.287	0.0136
632.621	-0.0028
632.955	-0.0057
633.289	-0.0079
633.623	-0.0005
633.957	-0.0006
634.291	0
634.625	0.0054
634.959	-0.0008
635.293	0.0052
635.627	0.0047
635.96	0.0096
636.294	0.0025
636.627	-0.0003
636.961	0.0086
637.294	0.0079
637.628	-0.0013
637.961	-0.01
638.295	-0.0054
638.628	0.0073
638.961	0.0106
639.294	0.0102
639.628	0.0025
639.961	-0.0082
640.294	-0.0097
640.627	-0.0053
640.96	0.0046
641.293	0.0084
641.625	0.0072
641.958	0.0019
642.291	-0.0059
642.624	-0.0083
642.956	-0.0034
643.289	0.0026
643.621	0.0067
643.954	0.0018
644.286	-0.0021
644.619	-0.0059
644.951	-0.0001
645.283	0.0028
645.616	0.0085
645.948	0.0039
646.28	0.008
646.612	0.0051
646.944	0.009
647.276	0.0035
647.608	0.0048
647.94	0.002
648.272	0.0004
648.603	-0.0033
648.935	0.0013
649.267	0.0049
649.598	0.0068
649.93	0.0019
650.261	0.0031
650.593	0.0094
650.924	0.0228
651.256	0.0239
651.587	0.0165
651.918	0.0067
652.25	0.0011
652.581	0.0001
652.912	-0.004
653.243	-0.0034
653.574	-0.0015
653.905	0.0004
654.236	-0.0014
654.567	0.0045
654.897	0.0076
655.228	0.0049
655.559	0.003
655.89	0.0067
656.22	0.0057
656.551	-0.0006
656.881	-0.0096
657.212	-0.0045
657.542	0.0006
657.872	0.0101
658.203	0.02
658.533	0.1414
658.863	0.0829
659.193	0.0186
659.523	-0.0453
659.853	-0.1126
660.183	-0.0639
660.513	-0.0285
660.843	-0.0108
661.173	-0.0045
661.503	-0.0037
661.833	-0.0019
662.162	-0.0031
662.492	-0.0031
662.822	-0.004
663.151	-0.0067
663.481	-0.0039
663.81	-0.0016
664.139	0.0051
664.469	0.0029
664.798	-0.001
665.127	-0.003
665.456	0.001
665.785	0.0055
666.114	0.0047
666.443	0.0026
666.772	0.0024
667.101	0.0066
667.43	0.0067
667.759	0.0036
668.088	0.0026
668.416	-0.0004
668.745	0.0017
669.074	-0.0013
669.402	0.0068
669.731	0.0075
670.059	0.0116
670.388	0.0029
670.716	0.0035
671.044	0.0002
671.372	0.0019
671.701	-0.0013
672.029	0.0027
672.357	0.0054
672.685	0.007
673.013	0.0076
673.341	-0.0029
673.669	-0.0027
673.996	-0.0048
674.324	0.0187
674.652	0.0161
674.98	0.0096
675.307	-0.0035
675.635	-0.0105
675.962	-0.0069
676.29	-0.0086
676.617	-0.0018
676.945	-0.0006
677.272	-0.0022
677.599	0.0011
677.926	0.0009
678.253	0.0056
678.581	-0.0021
678.908	-0.0001
679.235	0.003
679.561	0.0019
679.888	-0.0056
680.215	-0.0075
680.542	0.013
680.869	0.0081
681.195	0.0009
681.522	-0.0123
681.849	-0.0031
682.175	0.0114
682.502	0.0152
682.828	0.013
683.154	-0.0012
683.481	-0.0047
683.807	-0.007
684.133	0.0066
684.459	0.0076
684.785	0.0103
685.111	-0.0025
685.437	-0.0051
685.763	-0.0073
686.089	-0.0006
686.415	0.0047
686.741	0.0047
687.067	0.0076
687.392	0.0015
687.718	0.0045
688.043	0.0056
688.369	0.0068
688.694	-0.0009
689.02	-0.01
689.345	-0.0147
689.67	-0.011
689.996	-0.0072
690.321	-0.0008
690.646	0.0011
690.971	0.0016
691.296	0.0007
691.621	-0.0001
691.946	0.0027
692.271	0.0089
692.596	0.0036
692.921	-0.0014
693.245	-0.01
693.57	0.0003
693.895	0.0106
694.219	0.0138
694.544	0.001
694.868	-0.0072
695.193	-0.0073
695.517	0.0034
695.841	0.0058
696.166	0.003
696.49	-0.0035
696.814	-0.0079
697.138	-0.0053
697.462	0.0031
697.786	0.0101
698.11	0.016
698.434	0.0072
698.758	-0.0011
699.081	-0.0127
699.405	-0.0062
699.729	0.0199
700.052	0.0199
700.376	0.0083
700.7	-0.0119
701.023	-0.0179
701.346	-0.0054
701.67	0
701.993	0.0044
702.316	0.0012
702.639	0.0019
702.963	0.0007
703.286	-0.0031
703.609	-0.0002
703.932	0.0016
704.255	0.0019
704.578	0.0026
704.9	0.0047
705.223	0.0077
705.546	0.0056
705.868	-0.002
706.191	-0.0071
706.514	-0.0166
706.836	-0.0154
707.159	-0.0053
707.481	-0.0004
707.803	0.0011
708.126	-0.0004
708.448	0.0043
708.77	0.0119
709.092	0.008
709.414	0.0128
709.736	0.0099
710.058	0.0039
710.38	-0.0051
710.702	-0.01
711.024	-0.0095
711.345	-0.0092
711.667	-0.0085
711.989	-0.0054
712.31	-0.0017
712.632	0.0009
712.953	0.0026
713.275	0.0029
713.596	0.0065
713.917	-0.0025
714.239	-0.0081
714.56	-0.0116
714.881	-0.0033
715.202	0.0022
715.523	0.0125
715.844	0.0071
716.165	0.01
716.486	-0.001
716.807	0.0031
717.128	-0.0003
717.448	-0.0006
717.769	-0.0057
718.09	-0.0015
718.41	-0.0073
718.731	-0.0042
719.051	-0.0134
719.372	-0.0096
719.692	-0.0047
720.012	0.0037
720.332	0.0027
720.653	0.0019
720.973	0.0073
721.293	0.0015
721.613	-0.006
721.933	-0.0146
722.253	-0.0042
722.573	-0.0049
722.892	-0.0066
723.212	-0.011
723.532	-0.0051
723.851	-0.0016
724.171	0.0012
724.491	0.0032
724.81	0
725.129	-0.0013
725.449	-0.0037
725.768	-0.0002
726.087	0.0024
726.407	-0.0004
726.726	-0.007
727.045	-0.0141
727.364	-0.0114
727.683	-0.0062
728.002	0.0012
728.321	-0.0001
728.64	-0.005
728.958	-0.0044
729.277	-0.0032
729.596	-0.0023
729.914	-0.0071
730.233	-0.0011
730.551	0.0059
730.87	0.0085
731.188	0.0064
731.507	-0.0009
731.825	-0.0054
732.143	-0.0093
732.461	-0.0033
732.779	0.0005
733.097	0.0005
733.415	0.006
733.733	0.019
734.051	0.0061
734.369	-0.0011
734.687	-0.0202
735.005	-0.0141
735.322	-0.0117
735.64	0.0005
735.957	-0
736.275	-0.004
736.592	-0.0028
736.91	0.0008
737.227	0.005
737.544	-0.009
737.862	-0.0076
738.179	-0.0074
738.496	0.003
738.813	-0.0028
739.13	-0.0147
739.447	-0.0193
739.764	-0.0076
740.081	-0.0012
740.398	-0.0049
740.714	-0.0113
741.031	-0.0094
741.348	-0.0033
741.664	0.0056
741.981	0.0162
742.297	0.0085
742.614	-0.0054
742.93	-0.0185
743.246	-0.0117
743.563	-0.0028
743.879	-0.0015
744.195	-0.0046
744.511	-0.0024
744.827	0.0007
745.143	0.0078
745.459	0.0083
745.775	0.0055
746.091	0.0009
746.406	-0.0065
746.722	-0.0092
747.038	-0.0106
747.353	-0.0052
747.669	-0.0007
747.984	-0.0029
748.3	-0.002
748.615	-0.0028
748.93	0.0007
749.246	-0.0084
749.561	-0.0101
749.876	-0.0051
750.191	0.0017
750.506	0.0026
750.821	-0.0035
751.136	0.0006
751.451	0.0016
751.766	0.0014
752.08	0.003
752.395	0.0038
752.71	0.0028
753.024	-0.0009
753.339	-0.0034
753.653	-0.0004
753.968	0.0065
754.282	0.0116
754.596	0.01
754.911	-0.0006
755.225	0.0007
755.539	-0.0004
755.853	-0.0013
756.167	-0.0028
756.481	-0.0028
756.795	-0.0029
757.109	-0.003
757.423	-0.0005
757.736	0.0023
758.05	-0.0021
758.364	-0.0001
758.677	-0.0035
758.991	-0.0058
759.304	-0.0044
759.618	0.0066
759.931	0.0062
760.244	0.0138
760.558	0.004
760.871	0.0006
761.184	-0.0204
761.497	-0.0257
761.81	-0.0164
762.123	-0.0002
762.436	0.0082
762.749	0.0008
763.062	-0.0007
763.374	0.0044
763.687	-0.0004
764	-0.0021
764.312	-0.0161
764.625	-0.0134
764.937	-0.0161
765.25	-0.0099
765.562	0
765.874	0.0003
766.186	0.0029
766.499	-0.006
766.811	-0.0029
767.123	0.0057
767.435	0.0065
767.747	0.0016
768.059	-0.0111
768.37	-0.0113
768.682	-0.0141
768.994	-0.014
769.306	-0.0136
769.617	-0.0105
769.929	-0.0071
770.24	-0.0028
770.552	0.0056
770.863	0.0073
771.174	0.0012
771.486	-0.0042
771.797	-0.0094
772.108	-0.0176
772.419	-0.0248
772.73	-0.0185
773.041	-0.0075
773.352	-0.0005
773.663	-0.007
773.974	-0.0032
774.285	-0.0087
774.595	-0.0056
774.906	-0.0099
775.217	0.0007
775.527	0.0029
775.838	0.0021
776.148	-0.0023
776.458	-0.0035
776.769	-0.0018
777.079	0.0006
777.389	0.0036
777.699	0.0077
778.009	0.0036
778.319	-0.0021
778.629	-0.0139
778.939	-0.0155
779.249	-0.0095
779.559	-0.0008
779.869	-0.0011
780.178	-0.0055
780.488	-0.0092
780.798	-0.0088
781.107	-0.0041
781.417	0.0051
781.726	0.0033
782.035	0.0009
782.345	-0.005
782.654	-0.0033
782.963	-0.001
783.272	-0.001
783.581	0.0068
783.89	0.0123
784.199	0.0091
784.508	-0.0012
784.817	-0.0157
785.126	-0.016
785.434	-0.0133
785.743	-0.0128
786.052	-0.0075
786.36	-0.0088
786.669	-0.0057
786.977	-0.0104
787.285	-0.0107
787.594	-0.0081
787.902	-0.0029
788.21	0.0012
788.518	0.0067
788.826	0.0023
789.135	0.0005
789.442	-0.0098
789.75	-0.0109
790.058	-0.0124
790.366	-0.0075
790.674	-0.001
790.981	0.0031
791.289	0.0049
791.597	-0.0019
791.904	-0.0069
792.212	-0.0074
792.519	-0.0077
792.826	0.0007
793.134	-0.0051
793.441	-0.004
793.748	-0.0082
794.055	-0.0024
794.362	0.0011
794.669	-0.0049
794.976	-0.0005
795.283	-0.0092
795.59	0.0005
795.897	-0.0083
796.203	-0.0062
796.51	0.0059
796.817	0.0134
797.123	0.0069
797.43	-0.0104
797.736	-0.0132
798.042	-0.01
798.349	-0.0041
798.655	-0.0132
798.961	-0.0075
799.267	-0.0067
799.573	-0.0013
799.879	0.001
800.185	0.004
800.491	0.0029
800.797	-0.0023
801.103	-0.008
801.408	-0.008
801.714	0.0015
802.02	-0.0025
802.325	0.004
802.631	-0.0045
802.936	0.004
803.242	-0.001
803.547	0.0007
803.852	0.0024
804.157	0.0031
804.462	0.0075
804.768	0.0043
805.073	0.0047
805.378	0.0053
805.682	0.0072
805.987	0.0045
806.292	0.0006
806.597	-0.0021
806.902	0.0022
807.206	-0.0071
807.511	-0.0072
807.815	-0.011
808.12	0.0026
808.424	0.0044
808.728	0.0123
809.033	0.0158
809.337	0.007
809.641	-0.0063
809.945	-0.0094
810.249	-0.0021
810.553	-0.0027
810.857	-0.005
811.161	-0.0083
811.465	-0.002
811.768	-0.0023
812.072	-0.0047
812.376	-0.0008
812.679	0.0037
812.983	0.0056
813.286	-0.0001
813.59	-0.0045
813.893	-0.0054
814.196	-0.0061
814.499	-0.0015
814.803	-0.0008
815.106	0.0032
815.409	-0.0098
815.712	-0.0092
816.015	-0.0087
816.318	0.0029
816.62	0.0065
816.923	-0.004
817.226	-0.0141
817.528	-0.0156
817.831	-0.0067
818.133	0.0003
818.436	-0.007
818.738	-0.0075
819.041	-0.0109
819.343	-0.0027
819.645	0.0046
819.947	0.0094
820.249	0.0032
820.551	-0.0043
820.853	-0.0126
821.155	-0.0083
821.457	-0.005
821.759	0.0014
822.061	-0.0044
822.362	-0.008
822.664	-0.0038
822.966	0.0104
823.267	0.0156
823.569	0.0109
823.87	-0.0048
824.171	-0.0184
824.473	-0.0273
824.774	-0.0193
825.075	-0.0073
825.376	-0.0039
825.677	0.0019
825.978	0.002
826.279	0.0014
826.58	-0.0091
826.881	-0.0144
827.181	-0.0168
827.482	-0.0167
827.783	-0.0122
828.083	-0.0054
828.384	-0.0065
828.684	-0.0131
828.985	-0.011
829.285	-0.0064
829.585	-0
829.885	0.0023
830.185	0.0021
830.486	0.0003
830.786	-0.0091
831.086	-0.0146
831.385	-0.0193
831.685	-0.0192
831.985	-0.0149
832.285	-0.013
832.585	-0.0054
832.884	-0.0073
833.184	-0.0067
833.483	-0.0109
833.783	-0.0128
834.082	-0.0101
834.381	-0.008
834.681	-0.0005
834.98	-0.008
835.279	-0.0107
835.578	-0.0062
835.877	-0.0118
836.176	-0.0151
836.475	-0.0205
836.774	-0.009
837.072	0.0028
837.371	0.0132
837.67	0.0071
837.968	0.0006
838.267	-0.0058
838.565	-0.0065
838.864	-0.0088
839.162	-0.0196
839.46	-0.0131
839.759	-0.011
840.057	-0.0052
840.355	0.0004
840.653	-0.0003
840.951	-0.0026
841.249	-0.0149
841.547	-0.0177
841.845	-0.0075
842.142	0.0024
842.44	0.0076
842.738	0.0011
843.035	-0.0053
843.333	-0.0117
843.63	-0.0178
843.928	-0.0107
844.225	-0.005
844.522	-0.0051
844.82	-0.0057
845.117	-0.0062
845.414	0.0017
845.711	0.0017
846.008	-0.0078
846.305	-0.0065
846.602	-0.0023
846.898	-0.0041
847.195	-0.0162
847.492	-0.0231
847.788	-0.0035
848.085	-0.0059
848.382	0.0041
848.678	0.0001
848.974	0.0107
849.271	-0.0007
849.567	-0.0087
849.863	-0.0169
850.159	-0.0046
850.455	0.0017
850.751	0.018
851.047	0.0117
851.343	0.0111
851.639	-0.0024
851.935	0.0043
852.23	0.0008
852.526	-0.0059
852.822	-0.0075
853.117	-0.0076
853.413	0.0057
853.708	-0.0064
854.003	-0.0023
854.299	-0.0187
854.594	-0.01
854.889	-0.0098
855.184	0.0025
855.479	-0.0071
855.774	-0.0033
856.069	-0.0045
856.364	0.0071
856.659	0.0013
856.954	0.0069
857.248	-0.0041
857.543	-0.0148
857.837	-0.029
858.132	-0.0212
858.426	-0.0216
858.721	-0.0138
859.015	-0.0166
859.309	-0.0018
859.604	0.0074
859.898	0.005
860.192	0.0009
860.486	-0.0059
860.78	-0.0132
861.074	-0.0191
861.367	-0.041
861.661	-0.0141
861.955	0.0033
862.248	0.0305
862.542	0.0009
862.836	-0.0216
863.129	-0.0246
863.422	-0.0049
863.716	-0.004
864.009	-0.0007
864.302	0.008
864.595	0.0214
864.889	0.0175
865.182	-0.0138
865.475	-0.0023
865.767	-0.0152
866.06	-0.0071
866.353	-0.0388
866.646	-0.0149
866.938	-0.0085
867.231	0.0029
867.524	0.0079
867.816	0.0022
868.109	0.0065
868.401	-0.0033
868.693	0.0315
868.985	0.0397
869.278	0.0358
869.57	0.0118
869.862	-0.0117
870.154	-0.0371
870.446	-0.0058
870.738	0.0027
871.029	0.0233
871.321	0.0101
871.613	0.0319
871.904	0.0036
872.196	-0.0036
872.487	-0.0621
872.779	-0.0523
873.07	-0.064
873.362	-0.0318
873.653	-0.0331
873.944	-0.0359
874.235	-0.0363
874.526	-0.0114
874.817	-0.0015
875.108	0.0072
875.399	0.0173
875.69	0.0176
875.981	0.0104
876.271	-0.0192
876.562	-0.043
876.853	-0.0194
877.143	-0.0139
877.434	0.0286
877.724	0.0321
878.014	0.0488
878.305	0.0193
878.595	-0.0167
878.885	-0.0242
879.175	0.021
879.465	0.048
879.755	0.027
880.045	0.007
880.335	0.0116
880.624	0.0535
880.914	0.0535
