Data from 13SS02MU_071317_1a_Absorbance_21-05-03-783.txt Node
Date: Tue Jul 18 21:05:03 MDT 2017
User: Tank Lab
Spectrometer: FLMS01220
Trigger mode: 0
Integration Time (sec): 1.000000E-1
Scans to average: 10
Electric dark correction enabled: true
Nonlinearity correction enabled: false
Boxcar width: 1
XAxis mode: Wavelengths
Number of Pixels in Spectrum: 2048
>>>>>Begin Spectral Data<<<<<
179.47	-0.2234
179.856	-0.2234
180.241	-0.0758
180.626	0.0116
181.011	0.7583
181.396	0.5724
181.781	1.0966
182.166	-0
182.551	0.0148
182.936	0.2673
183.321	-0
183.706	-0.2608
184.091	-0.2506
184.476	-0.1302
184.86	-0.3314
185.245	-0.3307
185.63	0.1021
186.015	-0
186.399	1.2319
186.784	0.1482
187.169	0.0112
187.553	0.0204
187.938	0.0707
188.322	0.337
188.707	0.35
189.091	0.3434
189.475	0.3282
189.86	0.3222
190.244	0.3969
190.629	0.3881
191.013	0.401
191.397	0.412
191.781	0.5045
192.165	0.5715
192.55	0.5898
192.934	0.6031
193.318	0.6288
193.702	0.7144
194.086	0.7642
194.47	0.8253
194.854	0.8955
195.238	0.9335
195.622	0.9836
196.006	0.9444
196.389	0.9657
196.773	0.9758
197.157	0.9613
197.541	0.9784
197.924	0.9722
198.308	0.9858
198.692	0.9951
199.075	0.9855
199.459	0.9938
199.843	1.0139
200.226	1.0171
200.61	1.0482
200.993	1.0321
201.376	1.0256
201.76	1.0205
202.143	1.0285
202.527	1.0594
202.91	1.0591
203.293	1.0473
203.676	1.0663
204.059	1.0424
204.443	1.0786
204.826	1.0745
205.209	1.1053
205.592	1.0764
205.975	1.0757
206.358	1.0558
206.741	1.0512
207.124	1.0335
207.507	1.0556
207.89	1.0605
208.273	1.0724
208.655	1.0664
209.038	1.0637
209.421	1.0693
209.804	1.0958
210.186	1.1069
210.569	1.0969
210.951	1.0722
211.334	1.0753
211.717	1.0928
212.099	1.1079
212.482	1.1106
212.864	1.0972
213.246	1.0757
213.629	1.0686
214.011	1.0666
214.393	1.078
214.776	1.0722
215.158	1.068
215.54	1.0649
215.922	1.0661
216.305	1.0804
216.687	1.0917
217.069	1.0997
217.451	1.0913
217.833	1.0828
218.215	1.0681
218.597	1.064
218.979	1.0665
219.361	1.0817
219.742	1.0779
220.124	1.0702
220.506	1.0602
220.888	1.0576
221.27	1.0596
221.651	1.0562
222.033	1.0584
222.415	1.051
222.796	1.0427
223.178	1.0375
223.559	1.0417
223.941	1.0468
224.322	1.045
224.704	1.0424
225.085	1.0391
225.466	1.0339
225.848	1.0165
226.229	1.0109
226.61	1.0121
226.992	1.0185
227.373	1.0141
227.754	1.0085
228.135	1.0058
228.516	1.0072
228.897	1.0016
229.278	0.9962
229.659	0.9851
230.04	0.9862
230.421	0.9861
230.802	0.9869
231.183	0.9829
231.564	0.9777
231.944	0.9764
232.325	0.9692
232.706	0.9591
233.087	0.9545
233.467	0.9585
233.848	0.9591
234.229	0.9607
234.609	0.9532
234.99	0.9492
235.37	0.9391
235.751	0.9342
236.131	0.9348
236.511	0.9301
236.892	0.925
237.272	0.9226
237.652	0.9172
238.033	0.9143
238.413	0.9059
238.793	0.909
239.173	0.9103
239.553	0.9117
239.933	0.9047
240.313	0.8973
240.694	0.889
241.074	0.8848
241.453	0.8804
241.833	0.8782
242.213	0.8763
242.593	0.8771
242.973	0.8713
243.353	0.8687
243.732	0.8624
244.112	0.8588
244.492	0.8522
244.872	0.8478
245.251	0.849
245.631	0.8466
246.01	0.8421
246.39	0.8333
246.769	0.8338
247.149	0.8294
247.528	0.8303
247.908	0.8197
248.287	0.8207
248.666	0.8165
249.045	0.8151
249.425	0.8131
249.804	0.811
250.183	0.8095
250.562	0.8037
250.941	0.8014
251.32	0.7975
251.699	0.7965
252.078	0.7936
252.457	0.7932
252.836	0.789
253.215	0.7851
253.594	0.7858
253.973	0.7837
254.352	0.7806
254.731	0.7777
255.109	0.7752
255.488	0.7748
255.867	0.7691
256.245	0.7709
256.624	0.7683
257.002	0.7713
257.381	0.765
257.759	0.7633
258.138	0.7563
258.516	0.7551
258.895	0.7553
259.273	0.7548
259.651	0.7523
260.03	0.7513
260.408	0.7503
260.786	0.7485
261.164	0.7417
261.542	0.7378
261.921	0.7323
262.299	0.7271
262.677	0.7215
263.055	0.721
263.433	0.7175
263.811	0.7143
264.188	0.7111
264.566	0.7132
264.944	0.7143
265.322	0.7109
265.7	0.7056
266.077	0.7045
266.455	0.702
266.833	0.7035
267.21	0.699
267.588	0.6952
267.966	0.6885
268.343	0.6855
268.721	0.6842
269.098	0.6823
269.475	0.6808
269.853	0.6772
270.23	0.673
270.607	0.6699
270.985	0.6692
271.362	0.6666
271.739	0.6598
272.116	0.6544
272.494	0.6509
272.871	0.649
273.248	0.6453
273.625	0.6415
274.002	0.64
274.379	0.6389
274.756	0.6382
275.132	0.6344
275.509	0.6302
275.886	0.6256
276.263	0.6236
276.64	0.6207
277.016	0.6168
277.393	0.6116
277.77	0.6066
278.146	0.6044
278.523	0.6019
278.899	0.5994
279.276	0.5959
279.652	0.5935
280.029	0.5913
280.405	0.5888
280.782	0.5829
281.158	0.5808
281.534	0.5793
281.91	0.5783
282.287	0.5755
282.663	0.5704
283.039	0.5692
283.415	0.5641
283.791	0.5625
284.167	0.558
284.543	0.5564
284.919	0.5536
285.295	0.5538
285.671	0.5519
286.047	0.5491
286.423	0.5443
286.799	0.5423
287.174	0.542
287.55	0.5394
287.926	0.5373
288.301	0.531
288.677	0.5282
289.053	0.5256
289.428	0.5229
289.804	0.5208
290.179	0.5197
290.555	0.5197
290.93	0.5169
291.305	0.5116
291.681	0.5084
292.056	0.5071
292.431	0.5049
292.806	0.504
293.182	0.5015
293.557	0.5012
293.932	0.4991
294.307	0.4946
294.682	0.4901
295.057	0.4835
295.432	0.4807
295.807	0.4792
296.182	0.4791
296.557	0.4789
296.932	0.4758
297.306	0.4733
297.681	0.4688
298.056	0.4679
298.43	0.4651
298.805	0.463
299.18	0.4572
299.554	0.4562
299.929	0.4543
300.303	0.4542
300.678	0.4536
301.052	0.4533
301.427	0.4513
301.801	0.447
302.175	0.4441
302.55	0.4416
302.924	0.4391
303.298	0.4354
303.672	0.4333
304.046	0.4319
304.421	0.4308
304.795	0.4273
305.169	0.4258
305.543	0.4247
305.917	0.4225
306.291	0.4183
306.664	0.4167
307.038	0.4138
307.412	0.4123
307.786	0.4087
308.16	0.4078
308.533	0.4054
308.907	0.4034
309.281	0.4039
309.654	0.4035
310.028	0.4028
310.401	0.3999
310.775	0.396
311.148	0.3928
311.522	0.3892
311.895	0.3873
312.268	0.3835
312.642	0.3826
313.015	0.3823
313.388	0.3811
313.761	0.3796
314.135	0.3754
314.508	0.3749
314.881	0.3713
315.254	0.3695
315.627	0.3679
316	0.3651
316.373	0.3643
316.746	0.36
317.118	0.3602
317.491	0.3567
317.864	0.3548
318.237	0.3541
318.61	0.3546
318.982	0.3545
319.355	0.35
319.727	0.3468
320.1	0.347
320.473	0.3471
320.845	0.3453
321.218	0.3425
321.59	0.3413
321.962	0.3399
322.335	0.3372
322.707	0.3338
323.079	0.3328
323.452	0.3307
323.824	0.3303
324.196	0.3281
324.568	0.3286
324.94	0.3264
325.312	0.3257
325.684	0.3216
326.056	0.3192
326.428	0.3149
326.8	0.3115
327.172	0.3092
327.544	0.3069
327.915	0.3102
328.287	0.3091
328.659	0.3096
329.031	0.3056
329.402	0.3032
329.774	0.3011
330.145	0.2997
330.517	0.2984
330.888	0.2954
331.26	0.2923
331.631	0.2906
332.003	0.2887
332.374	0.2876
332.745	0.2851
333.117	0.2828
333.488	0.283
333.859	0.282
334.23	0.2822
334.601	0.2797
334.972	0.2783
335.343	0.2776
335.714	0.2763
336.085	0.275
336.456	0.2714
336.827	0.2686
337.198	0.2679
337.569	0.2687
337.94	0.2698
338.31	0.2675
338.681	0.2653
339.052	0.2626
339.422	0.2584
339.793	0.2586
340.164	0.2558
340.534	0.2553
340.905	0.2531
341.275	0.2554
341.645	0.2555
342.016	0.2537
342.386	0.2508
342.756	0.25
343.127	0.2466
343.497	0.2439
343.867	0.2402
344.237	0.2384
344.607	0.2367
344.977	0.2378
345.347	0.2366
345.717	0.2348
346.087	0.2325
346.457	0.2328
346.827	0.2311
347.197	0.2296
347.567	0.2257
347.936	0.2265
348.306	0.2262
348.676	0.2295
349.046	0.2279
349.415	0.2259
349.785	0.2217
350.154	0.2186
350.524	0.2175
350.893	0.2159
351.263	0.2145
351.632	0.2121
352.001	0.2116
352.371	0.2128
352.74	0.2118
353.109	0.2103
353.478	0.2086
353.847	0.2094
354.217	0.2096
354.586	0.2078
354.955	0.2078
355.324	0.2047
355.693	0.2038
356.062	0.1994
356.43	0.1985
356.799	0.1981
357.168	0.1984
357.537	0.1974
357.906	0.1956
358.274	0.1927
358.643	0.191
359.011	0.1874
359.38	0.186
359.749	0.1846
360.117	0.1843
360.486	0.1825
360.854	0.182
361.222	0.1794
361.591	0.1796
361.959	0.1786
362.327	0.1795
362.695	0.179
363.064	0.1776
363.432	0.176
363.8	0.1766
364.168	0.1768
364.536	0.176
364.904	0.173
365.272	0.1695
365.64	0.1683
366.008	0.1667
366.376	0.1668
366.743	0.1655
367.111	0.1667
367.479	0.1655
367.847	0.1645
368.214	0.1613
368.582	0.1602
368.949	0.1587
369.317	0.1585
369.684	0.1589
370.052	0.1609
370.419	0.1614
370.787	0.1595
371.154	0.1555
371.521	0.1534
371.889	0.1506
372.256	0.1508
372.623	0.1473
372.99	0.1461
373.357	0.1434
373.724	0.1445
374.091	0.1427
374.458	0.1423
374.825	0.1388
375.192	0.1401
375.559	0.1395
375.926	0.1423
376.293	0.1434
376.659	0.1435
377.026	0.1408
377.393	0.1377
377.759	0.135
378.126	0.1366
378.492	0.1378
378.859	0.137
379.225	0.1323
379.592	0.1302
379.958	0.1312
380.325	0.1319
380.691	0.1286
381.057	0.1266
381.423	0.1242
381.79	0.1264
382.156	0.1265
382.522	0.1281
382.888	0.1259
383.254	0.1243
383.62	0.1229
383.986	0.1233
384.352	0.1241
384.718	0.1233
385.084	0.1242
385.449	0.1219
385.815	0.1192
386.181	0.1164
386.547	0.115
386.912	0.1142
387.278	0.1114
387.643	0.1112
388.009	0.1124
388.374	0.1132
388.74	0.1121
389.105	0.1122
389.471	0.1102
389.836	0.1102
390.201	0.1074
390.566	0.108
390.932	0.1075
391.297	0.109
391.662	0.1083
392.027	0.1062
392.392	0.1044
392.757	0.1034
393.122	0.1025
393.487	0.0996
393.852	0.0993
394.217	0.1013
394.582	0.105
394.946	0.1054
395.311	0.1047
395.676	0.1039
396.04	0.0993
396.405	0.0951
396.77	0.0921
397.134	0.0938
397.499	0.0949
397.863	0.0919
398.227	0.0905
398.592	0.0917
398.956	0.0943
399.32	0.0956
399.685	0.0929
400.049	0.0917
400.413	0.0923
400.777	0.0921
401.141	0.0959
401.505	0.0956
401.869	0.0945
402.233	0.0876
402.597	0.086
402.961	0.0845
403.325	0.0899
403.689	0.0888
404.053	0.0903
404.416	0.0851
404.78	0.0831
405.144	0.0836
405.507	0.0861
405.871	0.0853
406.234	0.0839
406.598	0.081
406.961	0.0826
407.325	0.082
407.688	0.0803
408.051	0.0804
408.415	0.0802
408.778	0.0816
409.141	0.0787
409.504	0.0794
409.867	0.0784
410.23	0.0799
410.593	0.0763
410.956	0.0778
411.319	0.0771
411.682	0.078
412.045	0.0761
412.408	0.0751
412.771	0.0746
413.134	0.0749
413.496	0.0749
413.859	0.0741
414.222	0.0731
414.584	0.072
414.947	0.0735
415.309	0.0736
415.672	0.073
416.034	0.0716
416.396	0.0712
416.759	0.0719
417.121	0.0731
417.483	0.0728
417.846	0.0716
418.208	0.0715
418.57	0.0689
418.932	0.0705
419.294	0.0692
419.656	0.0685
420.018	0.0681
420.38	0.066
420.742	0.0676
421.104	0.066
421.466	0.0649
421.827	0.0646
422.189	0.063
422.551	0.0636
422.912	0.0637
423.274	0.0645
423.636	0.0657
423.997	0.0662
424.359	0.0662
424.72	0.0665
425.081	0.064
425.443	0.0615
425.804	0.0581
426.165	0.0566
426.527	0.0552
426.888	0.0568
427.249	0.0603
427.61	0.0641
427.971	0.0603
428.332	0.0569
428.693	0.05
429.054	0.051
429.415	0.0528
429.776	0.0565
430.137	0.0575
430.498	0.0563
430.858	0.0585
431.219	0.0587
431.58	0.0577
431.94	0.0581
432.301	0.0605
432.661	0.0597
433.022	0.0582
433.382	0.0569
433.743	0.0534
434.103	0.0535
434.463	0.0481
434.824	0.0509
435.184	0.0507
435.544	0.052
435.904	0.0513
436.264	0.0497
436.624	0.0517
436.985	0.0522
437.345	0.05
437.704	0.0484
438.064	0.0505
438.424	0.0486
438.784	0.049
439.144	0.0525
439.504	0.0522
439.863	0.05
440.223	0.0428
440.583	0.0454
440.942	0.0486
441.302	0.0508
441.661	0.0489
442.021	0.0455
442.38	0.0456
442.739	0.0467
443.099	0.0452
443.458	0.0434
443.817	0.0472
444.176	0.0502
444.536	0.0498
444.895	0.0462
445.254	0.046
445.613	0.0464
445.972	0.0472
446.331	0.0463
446.69	0.045
447.049	0.0448
447.407	0.043
447.766	0.0448
448.125	0.0439
448.484	0.0458
448.842	0.0478
449.201	0.0486
449.559	0.0488
449.918	0.0446
450.276	0.0454
450.635	0.0433
450.993	0.0433
451.352	0.0418
451.71	0.0418
452.068	0.0423
452.426	0.0442
452.785	0.0433
453.143	0.0459
453.501	0.0433
453.859	0.0429
454.217	0.0399
454.575	0.0389
454.933	0.0416
455.291	0.0414
455.649	0.039
456.006	0.037
456.364	0.0395
456.722	0.0375
457.079	0.0398
457.437	0.0374
457.795	0.0444
458.152	0.0425
458.51	0.0412
458.867	0.0363
459.225	0.0385
459.582	0.0397
459.939	0.0379
460.297	0.035
460.654	0.0337
461.011	0.0375
461.368	0.0397
461.725	0.0411
462.082	0.0399
462.44	0.0397
462.797	0.0384
463.153	0.0403
463.51	0.0379
463.867	0.0398
464.224	0.0353
464.581	0.0338
464.938	0.0309
465.294	0.0332
465.651	0.0335
466.008	0.0364
466.364	0.0351
466.721	0.0361
467.077	0.0345
467.434	0.0385
467.79	0.0418
468.146	0.0417
468.503	0.045
468.859	0.0371
469.215	0.0331
469.571	0.0261
469.927	0.032
470.284	0.0342
470.64	0.0394
470.996	0.0406
471.352	0.042
471.707	0.0385
472.063	0.0344
472.419	0.0329
472.775	0.028
473.131	0.0324
473.486	0.0332
473.842	0.0366
474.198	0.0342
474.553	0.0344
474.909	0.037
475.264	0.0369
475.62	0.0363
475.975	0.0329
476.331	0.0339
476.686	0.0344
477.041	0.036
477.396	0.0383
477.752	0.0407
478.107	0.0397
478.462	0.0343
478.817	0.0312
479.172	0.0352
479.527	0.0361
479.882	0.0362
480.237	0.0304
480.591	0.0292
480.946	0.0281
481.301	0.0311
481.656	0.0284
482.01	0.0286
482.365	0.024
482.72	0.0288
483.074	0.0306
483.429	0.0323
483.783	0.0302
484.137	0.0319
484.492	0.0322
484.846	0.0335
485.2	0.0271
485.555	0.026
485.909	0.0267
486.263	0.0318
486.617	0.0331
486.971	0.0324
487.325	0.0329
487.679	0.0337
488.033	0.0299
488.387	0.0361
488.741	0.0375
489.094	0.0325
489.448	0.0248
489.802	0.0277
490.156	0.0328
490.509	0.0273
490.863	0.0195
491.216	0.0239
491.57	0.0269
491.923	0.0281
492.277	0.0235
492.63	0.0241
492.983	0.024
493.337	0.0238
493.69	0.0248
494.043	0.0247
494.396	0.0256
494.749	0.0253
495.102	0.0255
495.455	0.0264
495.808	0.0242
496.161	0.0269
496.514	0.0275
496.867	0.03
497.22	0.0288
497.572	0.0253
497.925	0.0242
498.278	0.0212
498.63	0.0282
498.983	0.0291
499.335	0.0322
499.688	0.0214
500.04	0.0183
500.393	0.016
500.745	0.0217
501.097	0.0237
501.449	0.0227
501.802	0.0239
502.154	0.0258
502.506	0.0239
502.858	0.0226
503.21	0.0208
503.562	0.024
503.914	0.0284
504.266	0.0298
504.618	0.0268
504.969	0.0247
505.321	0.0195
505.673	0.0221
506.025	0.0214
506.376	0.0247
506.728	0.0231
507.079	0.0232
507.431	0.0231
507.782	0.0246
508.134	0.0249
508.485	0.0227
508.836	0.0202
509.188	0.0222
509.539	0.0249
509.89	0.0219
510.241	0.017
510.592	0.0207
510.943	0.0222
511.294	0.0234
511.645	0.0166
511.996	0.0179
512.347	0.0195
512.698	0.0246
513.049	0.0254
513.399	0.024
513.75	0.0191
514.101	0.0218
514.451	0.023
514.802	0.0259
515.152	0.0238
515.503	0.0252
515.853	0.0226
516.203	0.0184
516.554	0.014
516.904	0.0162
517.254	0.0205
517.604	0.0224
517.955	0.0182
518.305	0.0181
518.655	0.0171
519.005	0.0205
519.355	0.0227
519.705	0.0193
520.055	0.0181
520.404	0.0158
520.754	0.0223
521.104	0.025
521.454	0.026
521.803	0.0238
522.153	0.0207
522.502	0.0186
522.852	0.016
523.201	0.0179
523.551	0.0198
523.9	0.0249
524.249	0.0261
524.599	0.0239
524.948	0.0203
525.297	0.02
525.646	0.0187
525.995	0.019
526.344	0.015
526.694	0.0173
527.042	0.014
527.391	0.0137
527.74	0.0129
528.089	0.0136
528.438	0.019
528.787	0.0207
529.135	0.0211
529.484	0.0202
529.833	0.0202
530.181	0.0212
530.53	0.0191
530.878	0.0166
531.227	0.0197
531.575	0.0236
531.923	0.0212
532.271	0.0172
532.62	0.0147
532.968	0.0165
533.316	0.0179
533.664	0.017
534.012	0.0191
534.36	0.0206
534.708	0.018
535.056	0.0161
535.404	0.0118
535.752	0.0155
536.1	0.0177
536.447	0.0207
536.795	0.0204
537.143	0.0215
537.49	0.0209
537.838	0.0189
538.185	0.0156
538.533	0.0136
538.88	0.0139
539.228	0.0143
539.575	0.017
539.922	0.0176
540.269	0.0222
540.617	0.0202
540.964	0.0185
541.311	0.0162
541.658	0.019
542.005	0.02
542.352	0.0151
542.699	0.0113
543.045	0.0056
543.392	0.0107
543.739	0.0116
544.086	0.0159
544.432	0.012
544.779	0.0141
545.126	0.0133
545.472	0.0144
545.819	0.013
546.165	0.0146
546.512	0.0143
546.858	0.0174
547.204	0.0166
547.55	0.0161
547.897	0.0139
548.243	0.0089
548.589	0.0126
548.935	0.0083
549.281	0.0138
549.627	0.0106
549.973	0.0163
550.319	0.0179
550.665	0.0175
551.01	0.0109
551.356	0.0059
551.702	0.0035
552.048	0.0013
552.393	0.004
552.739	0.0097
553.084	0.0178
553.43	0.0153
553.775	0.0105
554.12	0.0098
554.466	0.0179
554.811	0.0202
555.156	0.0193
555.502	0.0167
555.847	0.0141
556.192	0.0151
556.537	0.0123
556.882	0.0139
557.227	0.0066
557.572	0.0111
557.917	0.0203
558.261	0.0188
558.606	0.0119
558.951	0.0025
559.295	0.0022
559.64	0.005
559.985	0.0062
560.329	0.0107
560.674	0.0102
561.018	0.0079
561.363	0.0064
561.707	0.0071
562.051	0.007
562.395	0.0135
562.74	0.0156
563.084	0.019
563.428	0.0194
563.772	0.0168
564.116	0.0109
564.46	0.0066
564.804	0.0093
565.148	0.0063
565.492	0.0101
565.835	0.0132
566.179	0.0205
566.523	0.0143
566.866	0.0068
567.21	0.0077
567.554	0.0124
567.897	0.0154
568.24	0.0084
568.584	0.0067
568.927	0.0091
569.271	0.0106
569.614	0.012
569.957	0.0107
570.3	0.0155
570.643	0.0153
570.986	0.0122
571.329	0.0142
571.672	0.0151
572.015	0.0146
572.358	0.0143
572.701	0.0186
573.044	0.0137
573.387	0.01
573.729	0.0103
574.072	0.0168
574.414	0.019
574.757	0.0188
575.099	0.0022
575.442	-0.0048
575.784	0.0084
576.127	0.0231
576.469	0.0222
576.811	0.0079
577.153	0.0098
577.496	0.0109
577.838	0.0118
578.18	-0.0042
578.522	-0.006
578.864	-0.0076
579.206	0.0162
579.548	0.0183
579.889	0.0054
580.231	0.0168
580.573	0.0285
580.915	0.0262
581.256	0.0019
581.598	-0.0153
581.939	-0.0179
582.281	0.0102
582.622	0.0068
582.964	0.0107
583.305	-0.0032
583.646	0.0072
583.988	0.0473
584.329	0.0328
584.67	0.0189
585.011	-0.0111
585.352	-0.019
585.693	-0.0068
586.034	-0.015
586.375	-0.0098
586.716	-0.0056
587.057	0.004
587.398	0.0192
587.738	0.0287
588.079	0.0171
588.42	0.0111
588.76	-0.0101
589.101	-0.0049
589.441	-0.0113
589.782	0.0029
590.122	0.0123
590.463	0.0174
590.803	0.0052
591.143	0.0047
591.483	-0.0065
591.823	-0.0085
592.164	-0.0112
592.504	0.0039
592.844	0.0089
593.184	0.0023
593.523	-0.0063
593.863	-0.0021
594.203	0.0077
594.543	0.017
594.883	0.0066
595.222	0.0148
595.562	0.0319
595.901	0.0299
596.241	0.0149
596.58	-0.0041
596.92	-0.01
597.259	-0.0137
597.599	-0.0074
597.938	0.0121
598.277	0.0144
598.616	0.0023
598.955	-0.0055
599.295	-0.0016
599.634	0.0135
599.973	0.0195
600.312	0.023
600.65	0.0108
600.989	0.0078
601.328	0.0145
601.667	0.0361
602.005	0.0183
602.344	0.0062
602.683	0.0004
603.021	0.0076
603.36	0.0019
603.698	-0.0067
604.037	-0.0073
604.375	-0.0041
604.713	-0.0088
605.052	-0.0045
605.39	-0.0024
605.728	0.0017
606.066	0.0232
606.404	0.026
606.742	0.0163
607.08	0.0027
607.418	-0.0088
607.756	0.0026
608.094	0.0065
608.431	0.013
608.769	0.0184
609.107	0.0014
609.444	0.0089
609.782	-0.0025
610.12	0.0142
610.457	0.0056
610.794	-0.0076
611.132	-0.0122
611.469	-0.0119
611.806	-0.0082
612.144	-0.0134
612.481	-0.0051
612.818	0.0114
613.155	0.0041
613.492	-0.0013
613.829	-0.0041
614.166	0.0085
614.503	0.0068
614.84	-0.0012
615.176	-0.0019
615.513	0.0022
615.85	0.0056
616.187	0.009
616.523	0.0024
616.86	0.0014
617.196	0.0115
617.533	0.029
617.869	0.0219
618.205	0.0074
618.542	-0.0113
618.878	-0.0178
619.214	-0.0083
619.55	-0.0039
619.886	0.0014
620.222	-0.0131
620.558	-0.0061
620.894	0.0076
621.23	0.0073
621.566	0.0023
621.902	-0.0049
622.238	-0.008
622.573	0.0074
622.909	-0.0015
623.244	0.0016
623.58	-0.0197
623.916	-0.0189
624.251	0.0019
624.586	0.0268
624.922	0.0299
625.257	0.0057
625.592	-0.01
625.927	-0.0081
626.263	-0.0052
626.598	-0.0002
626.933	0.0033
627.268	0.0102
627.603	-0.0001
627.938	-0.0105
628.272	-0.0052
628.607	-0.0052
628.942	-0.0008
629.277	-0.0074
629.611	0.006
629.946	0.017
630.281	0.0097
630.615	0.0034
630.949	-0.0115
631.284	-0.0059
631.618	0.0029
631.953	0.0111
632.287	0.0106
632.621	-0.0016
632.955	-0.0061
633.289	-0.0065
633.623	-0.0018
633.957	-0.0012
634.291	-0.0015
634.625	-0.0014
634.959	-0.0063
635.293	0.0001
635.627	0.0058
635.96	0.0126
636.294	0.0039
636.627	0.0016
636.961	0.0058
637.294	0.0057
637.628	0.0012
637.961	-0.0031
638.295	0.0021
638.628	0.0113
638.961	0.0133
639.294	0.0138
639.628	0.0011
639.961	-0.0071
640.294	-0.0084
640.627	-0.0017
640.96	0.0035
641.293	0.0051
641.625	0.0012
641.958	0.0008
642.291	-0.0077
642.624	-0.0051
642.956	-0.0055
643.289	0.0014
643.621	0.0018
643.954	-0.0013
644.286	-0.0015
644.619	-0.003
644.951	-0.0019
645.283	-0.0068
645.616	-0.0041
645.948	-0.0034
646.28	0.005
646.612	0.0025
646.944	0.0069
647.276	-0.0026
647.608	0.0003
647.94	-0.0026
648.272	0.0043
648.603	-0.0019
648.935	-0.0025
649.267	-0.002
649.598	0.003
649.93	0.0009
650.261	-0.0016
650.593	0.0038
650.924	0.0133
651.256	0.0124
651.587	0.0019
651.918	-0.0038
652.25	-0.0077
652.581	-0.0053
652.912	-0.0096
653.243	-0.0083
653.574	-0.0071
653.905	-0.0027
654.236	-0.002
654.567	-0.0005
654.897	-0.0005
655.228	-0.0023
655.559	0.0019
655.89	0.0092
656.22	0.0081
656.551	0.0014
656.881	-0.0067
657.212	-0.0038
657.542	-0.0017
657.872	0.0066
658.203	0.0198
658.533	0.1367
658.863	0.076
659.193	0.0168
659.523	-0.0432
659.853	-0.1032
660.183	-0.0576
660.513	-0.0242
660.843	-0.0104
661.173	-0.0029
661.503	-0.0014
661.833	0.0003
662.162	-0.0036
662.492	-0.0052
662.822	-0.01
663.151	-0.0068
663.481	-0.0042
663.81	0.0039
664.139	0.0054
664.469	0.0023
664.798	0.0009
665.127	0.0004
665.456	0.0032
665.785	0.0055
666.114	0.0037
666.443	0.0007
666.772	0.0011
667.101	0.0014
667.43	0.0038
667.759	-0.0018
668.088	-0.0036
668.416	-0.0096
668.745	-0.0054
669.074	-0.0031
669.402	0.0048
669.731	0.0007
670.059	0.005
670.388	-0.001
670.716	0.0016
671.044	-0.0032
671.372	-0.0031
671.701	-0.0009
672.029	0.002
672.357	0.0059
672.685	0.0044
673.013	0.0083
673.341	0.0023
673.669	-0.0001
673.996	-0.0061
674.324	0.0136
674.652	0.0106
674.98	0.0092
675.307	-0.0017
675.635	-0.0033
675.962	-0.0036
676.29	-0.0113
676.617	-0.0092
676.945	-0.0065
677.272	-0.0064
677.599	-0.0029
677.926	-0.0032
678.253	0.0009
678.581	-0.0049
678.908	-0.0025
679.235	0.0041
679.561	0.0013
679.888	-0.0065
680.215	-0.0096
680.542	0.0127
680.869	0.0104
681.195	0.0043
681.522	-0.0079
681.849	-0.0018
682.175	0.0067
682.502	0.009
682.828	0.0052
683.154	-0.0026
683.481	-0.0076
683.807	-0.0083
684.133	0.007
684.459	0.008
684.785	0.0122
685.111	-0.0015
685.437	-0.001
685.763	-0.0058
686.089	-0.0014
686.415	0.001
686.741	0.0027
687.067	0.006
687.392	0.0021
687.718	0.005
688.043	0.007
688.369	0.007
688.694	-0.0003
689.02	-0.0086
689.345	-0.014
689.67	-0.0102
689.996	-0.0078
690.321	0.0023
690.646	0.0034
690.971	0.0031
691.296	-0.0025
691.621	-0.0034
691.946	0.0012
692.271	0.0081
692.596	0.0026
692.921	-0.0056
693.245	-0.014
693.57	-0.0044
693.895	0.0079
694.219	0.0126
694.544	0.0021
694.868	-0.0068
695.193	-0.0097
695.517	-0.0004
695.841	0.0012
696.166	0.0042
696.49	-0.0009
696.814	-0.0054
697.138	-0.0066
697.462	0.001
697.786	0.0059
698.11	0.0116
698.434	0.0007
698.758	-0.0052
699.081	-0.0162
699.405	-0.0085
699.729	0.0174
700.052	0.0172
700.376	0.0089
700.7	-0.0105
701.023	-0.0162
701.346	-0.0111
701.67	-0.0089
701.993	-0.0054
702.316	-0.0017
702.639	0.0004
702.963	0.0024
703.286	-0.0029
703.609	0.0039
703.932	-0.0015
704.255	-0.0035
704.578	-0.0069
704.9	-0.0005
705.223	0.0026
705.546	-0.0004
705.868	-0.006
706.191	-0.0085
706.514	-0.0108
706.836	-0.0093
707.159	-0.0034
707.481	-0.0036
707.803	-0.0046
708.126	-0.0072
708.448	-0.0027
708.77	0.0015
709.092	0.004
709.414	0.0137
709.736	0.0162
710.058	0.0119
710.38	-0.0012
710.702	-0.0066
711.024	-0.0062
711.345	-0.0063
711.667	-0.0072
711.989	-0.0114
712.31	-0.0075
712.632	-0.0037
712.953	-0.0006
713.275	0.0009
713.596	0.0049
713.917	0.0024
714.239	-0.0022
714.56	-0.0057
714.881	-0.0014
715.202	0.0026
715.523	0.0124
715.844	0.0039
716.165	0.005
716.486	-0.0054
716.807	-0.0014
717.128	-0.003
717.448	-0.0034
717.769	-0.0052
718.09	-0.0055
718.41	-0.0092
718.731	-0.0086
719.051	-0.0125
719.372	-0.0112
719.692	-0.0044
720.012	0.0023
720.332	0.0009
720.653	0.0061
720.973	0.011
721.293	0.0058
721.613	-0.0061
721.933	-0.015
722.253	-0.006
722.573	-0.0078
722.892	-0.0047
723.212	-0.0037
723.532	0.0001
723.851	-0.0007
724.171	-0.0027
724.491	0.0035
724.81	-0.0021
725.129	-0.0042
725.449	-0.0109
725.768	-0.0034
726.087	-0.0015
726.407	0.0003
726.726	-0.0068
727.045	-0.0103
727.364	-0.0091
727.683	-0.0056
728.002	0.0023
728.321	0.0028
728.64	-0.0005
728.958	-0.0019
729.277	-0.0019
729.596	-0.0018
729.914	-0.0027
730.233	-0.0011
730.551	0.0038
730.87	-0.0007
731.188	0.0006
731.507	-0.0057
731.825	-0.004
732.143	-0.0093
732.461	-0.0019
732.779	-0.0015
733.097	-0.0001
733.415	0.0042
733.733	0.013
734.051	0.0015
734.369	-0.0087
734.687	-0.0246
735.005	-0.0183
735.322	-0.0127
735.64	-0.0004
735.957	0.001
736.275	-0.0015
736.592	0.0006
736.91	0.0005
737.227	0.0032
737.544	-0.01
737.862	-0.0073
738.179	-0.0065
738.496	0.0061
738.813	-0.0019
739.13	-0.0115
739.447	-0.0161
739.764	-0.0036
740.081	-0.0008
740.398	-0.008
740.714	-0.0133
741.031	-0.0089
741.348	-0.0024
741.664	0.0051
741.981	0.0138
742.297	0.0088
742.614	-0.0053
742.93	-0.0222
743.246	-0.0193
743.563	-0.0089
743.879	-0.0045
744.195	-0.0045
744.511	-0.0083
744.827	-0.0052
745.143	0.0029
745.459	0.0082
745.775	0.006
746.091	-0.0027
746.406	-0.0072
746.722	-0.0069
747.038	-0.0049
747.353	-0.0004
747.669	0.0024
747.984	0.0001
748.3	0.0006
748.615	0.0009
748.93	0.0057
749.246	-0.0033
749.561	-0.0063
749.876	-0.0063
750.191	-0.0008
750.506	-0.0008
750.821	-0.0053
751.136	-0.0043
751.451	-0.0006
751.766	-0.004
752.08	-0.001
752.395	0
752.71	0.006
753.024	0.0038
753.339	0.0009
753.653	-0.0036
753.968	0.0019
754.282	0.0039
754.596	0.0028
754.911	-0.0083
755.225	-0.0048
755.539	-0.0036
755.853	-0.0017
756.167	-0.0042
756.481	-0.0028
756.795	-0.0048
757.109	-0.0083
757.423	-0.0073
757.736	-0.003
758.05	-0.002
758.364	0.0008
758.677	-0.0032
758.991	-0.0003
759.304	0.0038
759.618	0.0112
759.931	0.0056
760.244	0.0094
760.558	-0.0004
760.871	-0.0048
761.184	-0.023
761.497	-0.0271
761.81	-0.0214
762.123	-0.0084
762.436	0.0015
762.749	-0.0017
763.062	-0.0026
763.374	-0.0028
763.687	-0.0037
764	-0.0037
764.312	-0.0151
764.625	-0.0139
764.937	-0.0162
765.25	-0.0069
765.562	-0.0005
765.874	-0.0043
766.186	-0.0014
766.499	-0.0116
766.811	-0.0075
767.123	-0.0006
767.435	0.0057
767.747	0.0021
768.059	-0.0105
768.37	-0.013
768.682	-0.0187
768.994	-0.0198
769.306	-0.0207
769.617	-0.0117
769.929	-0.0067
770.24	-0.0052
770.552	-0.0024
770.863	0.0017
771.174	0.0018
771.486	-0.0017
771.797	-0.0081
772.108	-0.0133
772.419	-0.019
772.73	-0.0151
773.041	-0.0096
773.352	-0.0087
773.663	-0.0152
773.974	-0.0132
774.285	-0.0117
774.595	-0.009
774.906	-0.009
775.217	-0.0078
775.527	-0.0051
775.838	-0.0093
776.148	-0.0068
776.458	-0.0038
776.769	-0.0022
777.079	-0.0021
777.389	-0.0014
777.699	0.003
778.009	-0.0014
778.319	-0.0055
778.629	-0.0143
778.939	-0.0137
779.249	-0.0115
779.559	-0.0065
779.869	-0.0075
780.178	-0.0089
780.488	-0.0096
780.798	-0.0074
781.107	-0.0036
781.417	0.0005
781.726	0.0024
782.035	0.0036
782.345	-0.0012
782.654	-0.0056
782.963	-0.0062
783.272	-0.0055
783.581	0.0026
783.89	0.0048
784.199	0.0045
784.508	-0.006
784.817	-0.0195
785.126	-0.0244
785.434	-0.0202
785.743	-0.0196
786.052	-0.0137
786.36	-0.0155
786.669	-0.0085
786.977	-0.0071
787.285	-0.0053
787.594	-0.0056
787.902	-0.0069
788.21	-0.0107
788.518	-0.0057
788.826	-0.0044
789.135	-0.0021
789.442	-0.0115
789.75	-0.0164
790.058	-0.0111
790.366	-0.0053
790.674	-0.0019
790.981	-0.0001
791.289	0.0031
791.597	-0.0006
791.904	-0.0076
792.212	-0.0123
792.519	-0.0105
792.826	0.0014
793.134	-0.0013
793.441	0.0012
793.748	-0.0049
794.055	0.0006
794.362	0.0005
794.669	-0.0067
794.976	-0.0046
795.283	-0.0105
795.59	-0.0015
795.897	-0.0097
796.203	-0.0065
796.51	0.003
796.817	0.0152
797.123	0.0046
797.43	-0.0077
797.736	-0.0153
798.042	-0.0124
798.349	-0.0082
798.655	-0.0156
798.961	-0.0081
799.267	-0.0109
799.573	-0.0059
799.879	-0.0053
800.185	-0.0028
800.491	-0.0018
800.797	-0.0062
801.103	-0.0097
801.408	-0.0102
801.714	-0.0045
802.02	-0.0082
802.325	-0.0028
802.631	-0.004
802.936	0.0006
803.242	-0.0064
803.547	-0.0151
803.852	-0.0154
804.157	-0.0149
804.462	-0.0072
804.768	-0.0102
805.073	-0.0076
805.378	-0.009
805.682	-0.0033
805.987	-0.0025
806.292	-0.0057
806.597	-0.0089
806.902	-0.0117
807.206	-0.013
807.511	-0.0115
807.815	-0.0136
808.12	-0.0015
808.424	0.0045
808.728	0.0164
809.033	0.0203
809.337	0.01
809.641	-0.0017
809.945	-0.0106
810.249	-0.0051
810.553	-0.0058
810.857	-0.0049
811.161	-0.0149
811.465	-0.0142
811.768	-0.0205
812.072	-0.0165
812.376	-0.0122
812.679	0.0023
812.983	0.0061
813.286	0.0027
813.59	-0.0107
813.893	-0.0082
814.196	-0.0115
814.499	-0.0118
814.803	-0.0124
815.106	-0.0111
815.409	-0.0142
815.712	-0.0102
816.015	-0.0012
816.318	0.0081
816.62	0.0002
816.923	-0.011
817.226	-0.0173
817.528	-0.015
817.831	-0.0101
818.133	-0.0129
818.436	-0.0165
818.738	-0.0169
819.041	-0.0103
819.343	-0.0068
819.645	0.0019
819.947	0.0035
820.249	0.0008
820.551	-0.0091
820.853	-0.0164
821.155	-0.0167
821.457	-0.0179
821.759	-0.0149
822.061	-0.0136
822.362	-0.0085
822.664	-0.0058
822.966	-0.0011
823.267	0.0042
823.569	0.005
823.87	-0.0072
824.171	-0.0197
824.473	-0.0254
824.774	-0.0163
825.075	-0.0092
825.376	-0.0089
825.677	-0.0073
825.978	-0.0074
826.279	-0.0069
826.58	-0.0141
826.881	-0.0072
827.181	-0.0144
827.482	-0.0197
827.783	-0.0295
828.083	-0.0195
828.384	-0.0156
828.684	-0.0183
828.985	-0.0122
829.285	0.003
829.585	0.0118
829.885	0.0114
830.185	0.0091
830.486	0.0057
830.786	-0.0073
831.086	-0.0212
831.385	-0.0247
831.685	-0.0195
831.985	-0.0116
832.285	-0.0154
832.585	-0.0178
832.884	-0.023
833.184	-0.0232
833.483	-0.023
833.783	-0.0244
834.082	-0.0199
834.381	-0.0204
834.681	-0.0117
834.98	-0.0139
835.279	-0.0135
835.578	-0.0165
835.877	-0.0167
836.176	-0.0144
836.475	-0.0154
836.774	-0.0107
837.072	-0.0047
837.371	0.0012
837.67	-0.0005
837.968	-0.0048
838.267	-0.0218
838.565	-0.026
838.864	-0.0207
839.162	-0.0216
839.46	-0.017
839.759	-0.0277
840.057	-0.0114
840.355	-0.0049
840.653	0.0008
840.951	0.003
841.249	-0.007
841.547	-0.0134
841.845	-0.0207
842.142	-0.0057
842.44	0.0021
842.738	0.0079
843.035	-0.0011
843.333	-0.003
843.63	-0.0094
843.928	0.0034
844.225	-0.0053
844.522	-0.0052
844.82	-0.0207
845.117	-0.0147
845.414	-0.0051
845.711	-0.0046
846.008	-0.0122
846.305	-0.0113
846.602	-0.0072
846.898	-0.0012
847.195	-0.0186
847.492	-0.0238
847.788	-0.0167
848.085	-0.0138
848.382	-0.0063
848.678	-0.0114
848.974	0.0063
849.271	0.0063
849.567	0.0006
849.863	-0.0097
850.159	-0.007
850.455	-0.0004
850.751	-0.0022
851.047	-0.0149
851.343	-0.0101
851.639	-0.0205
851.935	-0.0069
852.23	-0.0154
852.526	-0.0131
852.822	-0.0164
853.117	-0.0056
853.413	0.0002
853.708	-0.004
854.003	-0.0119
854.299	-0.0333
854.594	-0.0333
854.889	-0.0367
855.184	-0.0119
855.479	-0.0124
855.774	0.0032
856.069	-0.0037
856.364	-0.0048
856.659	-0.0094
856.954	-0.0107
857.248	-0.0296
857.543	-0.0432
857.837	-0.0618
858.132	-0.0423
858.426	-0.0548
858.721	-0.0377
859.015	-0.035
859.309	-0.0071
859.604	0.0053
859.898	0.0063
860.192	0.0023
860.486	-0.0137
860.78	-0.0176
861.074	-0.0252
861.367	-0.0332
861.661	-0.0123
861.955	-0.0082
862.248	0.0139
862.542	-0.025
862.836	-0.0452
863.129	-0.0344
863.422	-0.0226
863.716	-0.0096
864.009	-0.0317
864.302	-0.0198
864.595	-0.0046
864.889	0.0106
865.182	-0.0008
865.475	0.0072
865.767	-0.0065
866.06	0.0029
866.353	-0.0249
866.646	-0.0165
866.938	-0.0202
867.231	-0.0134
867.524	-0.0068
867.816	-0.0158
868.109	-0.0055
868.401	-0.0209
868.693	0.0023
868.985	-0.0001
869.278	0.0064
869.57	-0.0074
869.862	-0.0194
870.154	-0.0321
870.446	-0.016
870.738	-0.0188
871.029	0.0081
871.321	0.012
871.613	0.0321
871.904	-0.0186
872.196	-0.0266
872.487	-0.0659
872.779	-0.0461
873.07	-0.0416
873.362	-0.0314
873.653	-0.0173
873.944	-0.0365
874.235	-0.0495
874.526	-0.0367
874.817	-0.004
875.108	0.0127
875.399	0.0003
875.69	-0.0079
875.981	0.0201
876.271	0.0204
876.562	-0.0035
876.853	-0.0138
877.143	-0.0149
877.434	0.0012
877.724	0.0124
878.014	0.0204
878.305	0.0241
878.595	-0.0026
878.885	-0.0387
879.175	-0.0303
879.465	-0.0075
879.755	0.0181
880.045	0.0225
880.335	0.0331
880.624	0.0662
880.914	0.0662
