Data from 14SS03MU_072217_1b_Absorbance_19-25-44-854.txt Node
Date: Fri Jul 28 19:25:44 MDT 2017
User: Tank Lab
Spectrometer: FLMS01220
Trigger mode: 0
Integration Time (sec): 1.000000E-1
Scans to average: 10
Electric dark correction enabled: true
Nonlinearity correction enabled: false
Boxcar width: 1
XAxis mode: Wavelengths
Number of Pixels in Spectrum: 2048
>>>>>Begin Spectral Data<<<<<
179.47	0.2468
179.856	0.2468
180.241	-0
180.626	-0
181.011	-0.5349
181.396	-0.4945
181.781	0.0064
182.166	-0.7608
182.551	0.3179
182.936	-0
183.321	-0
183.706	0.7219
184.091	0.3589
184.476	0.9515
184.86	-0
185.245	-0
185.63	-0
186.015	-0
186.399	-0
186.784	-0
187.169	0.6948
187.553	0.1187
187.938	0.6686
188.322	0.1359
188.707	0.1413
189.091	0.195
189.475	0.234
189.86	0.2344
190.244	0.2519
190.629	0.286
191.013	0.3217
191.397	0.4111
191.781	0.4814
192.165	0.5551
192.55	0.5463
192.934	0.5652
193.318	0.6083
193.702	0.7132
194.086	0.7491
194.47	0.7598
194.854	0.7635
195.238	0.7931
195.622	0.8287
196.006	0.8189
196.389	0.8027
196.773	0.8259
197.157	0.853
197.541	0.8927
197.924	0.8565
198.308	0.8475
198.692	0.862
199.075	0.8794
199.459	0.8853
199.843	0.8736
200.226	0.8742
200.61	0.8736
200.993	0.8664
201.376	0.8664
201.76	0.863
202.143	0.8677
202.527	0.8647
202.91	0.8571
203.293	0.853
203.676	0.8395
204.059	0.8429
204.443	0.8373
204.826	0.85
205.209	0.8583
205.592	0.8711
205.975	0.8675
206.358	0.8677
206.741	0.8552
207.124	0.8664
207.507	0.8529
207.89	0.8604
208.273	0.8526
208.655	0.8544
209.038	0.8483
209.421	0.8388
209.804	0.8274
210.186	0.8293
210.569	0.8332
210.951	0.8462
211.334	0.8382
211.717	0.8361
212.099	0.8287
212.482	0.8267
212.864	0.8187
213.246	0.816
213.629	0.8135
214.011	0.8064
214.393	0.8022
214.776	0.7939
215.158	0.8005
215.54	0.7979
215.922	0.8032
216.305	0.7951
216.687	0.7855
217.069	0.7706
217.451	0.7631
217.833	0.7603
218.215	0.7607
218.597	0.7576
218.979	0.7532
219.361	0.7444
219.742	0.7371
220.124	0.7301
220.506	0.7261
220.888	0.7195
221.27	0.7134
221.651	0.7128
222.033	0.7072
222.415	0.7027
222.796	0.6925
223.178	0.6904
223.559	0.6842
223.941	0.6748
224.322	0.6658
224.704	0.6572
225.085	0.658
225.466	0.6533
225.848	0.6511
226.229	0.6454
226.61	0.6419
226.992	0.6375
227.373	0.6296
227.754	0.6265
228.135	0.6201
228.516	0.618
228.897	0.6101
229.278	0.6069
229.659	0.6006
230.04	0.5958
230.421	0.5925
230.802	0.5876
231.183	0.5853
231.564	0.5833
231.944	0.5796
232.325	0.5741
232.706	0.567
233.087	0.5632
233.467	0.5604
233.848	0.556
234.229	0.5537
234.609	0.5517
234.99	0.5506
235.37	0.5457
235.751	0.5384
236.131	0.5338
236.511	0.5334
236.892	0.5338
237.272	0.5313
237.652	0.5257
238.033	0.5214
238.413	0.5169
238.793	0.5147
239.173	0.5117
239.553	0.5094
239.933	0.5063
240.313	0.5045
240.694	0.5
241.074	0.4961
241.453	0.4923
241.833	0.4911
242.213	0.491
242.593	0.4892
242.973	0.4887
243.353	0.4843
243.732	0.4836
244.112	0.4803
244.492	0.478
244.872	0.4741
245.251	0.4706
245.631	0.4707
246.01	0.4676
246.39	0.4665
246.769	0.4652
247.149	0.463
247.528	0.462
247.908	0.4595
248.287	0.4596
248.666	0.4575
249.045	0.4554
249.425	0.4518
249.804	0.4502
250.183	0.4482
250.562	0.4471
250.941	0.4441
251.32	0.4427
251.699	0.441
252.078	0.4412
252.457	0.4398
252.836	0.4393
253.215	0.4374
253.594	0.4357
253.973	0.4336
254.352	0.4309
254.731	0.4275
255.109	0.4265
255.488	0.4267
255.867	0.4278
256.245	0.4263
256.624	0.424
257.002	0.4201
257.381	0.4194
257.759	0.4173
258.138	0.4176
258.516	0.4154
258.895	0.4149
259.273	0.4141
259.651	0.4132
260.03	0.4115
260.408	0.41
260.786	0.4076
261.164	0.4077
261.542	0.4049
261.921	0.404
262.299	0.4014
262.677	0.4003
263.055	0.3994
263.433	0.3962
263.811	0.3956
264.188	0.3925
264.566	0.3927
264.944	0.3908
265.322	0.3906
265.7	0.3879
266.077	0.3861
266.455	0.3818
266.833	0.3804
267.21	0.3796
267.588	0.3803
267.966	0.3802
268.343	0.3789
268.721	0.3778
269.098	0.3745
269.475	0.3718
269.853	0.3696
270.23	0.3691
270.607	0.3669
270.985	0.3652
271.362	0.3611
271.739	0.3577
272.116	0.3565
272.494	0.3563
272.871	0.3555
273.248	0.3521
273.625	0.3494
274.002	0.3473
274.379	0.3447
274.756	0.3436
275.132	0.3425
275.509	0.3426
275.886	0.3408
276.263	0.3391
276.64	0.3373
277.016	0.3357
277.393	0.3339
277.77	0.3309
278.146	0.3298
278.523	0.3277
278.899	0.3266
279.276	0.3235
279.652	0.3226
280.029	0.3216
280.405	0.3195
280.782	0.318
281.158	0.316
281.534	0.3132
281.91	0.3091
282.287	0.3075
282.663	0.308
283.039	0.3085
283.415	0.3053
283.791	0.3045
284.167	0.302
284.543	0.303
284.919	0.2994
285.295	0.297
285.671	0.2928
286.047	0.2928
286.423	0.2924
286.799	0.2921
287.174	0.2891
287.55	0.2874
287.926	0.2861
288.301	0.286
288.677	0.2853
289.053	0.2822
289.428	0.279
289.804	0.2759
290.179	0.2755
290.555	0.2759
290.93	0.276
291.305	0.2735
291.681	0.2717
292.056	0.2702
292.431	0.2688
292.806	0.2659
293.182	0.2627
293.557	0.2618
293.932	0.2612
294.307	0.2606
294.682	0.2599
295.057	0.2583
295.432	0.2574
295.807	0.2541
296.182	0.2531
296.557	0.2512
296.932	0.2499
297.306	0.2485
297.681	0.2475
298.056	0.247
298.43	0.2452
298.805	0.2424
299.18	0.2415
299.554	0.2399
299.929	0.2396
300.303	0.2377
300.678	0.2345
301.052	0.2328
301.427	0.2325
301.801	0.2338
302.175	0.2322
302.55	0.2292
302.924	0.2273
303.298	0.2267
303.672	0.2269
304.046	0.2258
304.421	0.2266
304.795	0.2248
305.169	0.2244
305.543	0.2206
305.917	0.2185
306.291	0.217
306.664	0.2165
307.038	0.2161
307.412	0.2149
307.786	0.2135
308.16	0.2123
308.533	0.2103
308.907	0.2095
309.281	0.2098
309.654	0.2076
310.028	0.2055
310.401	0.2035
310.775	0.2021
311.148	0.2013
311.522	0.1996
311.895	0.1999
312.268	0.2001
312.642	0.1978
313.015	0.1963
313.388	0.1932
313.761	0.193
314.135	0.193
314.508	0.1924
314.881	0.1908
315.254	0.1884
315.627	0.1877
316	0.1891
316.373	0.1875
316.746	0.1861
317.118	0.1835
317.491	0.1834
317.864	0.1842
318.237	0.1828
318.61	0.1807
318.982	0.1785
319.355	0.177
319.727	0.1766
320.1	0.1738
320.473	0.1716
320.845	0.1714
321.218	0.1712
321.59	0.1713
321.962	0.1704
322.335	0.1684
322.707	0.1682
323.079	0.1673
323.452	0.1699
323.824	0.1698
324.196	0.168
324.568	0.1647
324.94	0.1617
325.312	0.1623
325.684	0.162
326.056	0.1611
326.428	0.1579
326.8	0.1554
327.172	0.1539
327.544	0.1517
327.915	0.1507
328.287	0.1524
328.659	0.1546
329.031	0.1559
329.402	0.1526
329.774	0.1497
330.145	0.1462
330.517	0.146
330.888	0.1433
331.26	0.1437
331.631	0.1419
332.003	0.1432
332.374	0.1423
332.745	0.143
333.117	0.1412
333.488	0.1396
333.859	0.1404
334.23	0.1384
334.601	0.1383
334.972	0.1374
335.343	0.1385
335.714	0.1367
336.085	0.1334
336.456	0.1315
336.827	0.1309
337.198	0.1314
337.569	0.1305
337.94	0.1293
338.31	0.1286
338.681	0.1258
339.052	0.1253
339.422	0.1247
339.793	0.1271
340.164	0.126
340.534	0.1242
340.905	0.1225
341.275	0.1222
341.645	0.1181
342.016	0.1197
342.386	0.1189
342.756	0.1227
343.127	0.1192
343.497	0.1179
343.867	0.1166
344.237	0.118
344.607	0.117
344.977	0.1151
345.347	0.115
345.717	0.1142
346.087	0.1139
346.457	0.1116
346.827	0.1116
347.197	0.1123
347.567	0.1106
347.936	0.1108
348.306	0.11
348.676	0.1106
349.046	0.1098
349.415	0.1068
349.785	0.1076
350.154	0.1045
350.524	0.1057
350.893	0.1029
351.263	0.1048
351.632	0.103
352.001	0.1027
352.371	0.1026
352.74	0.1036
353.109	0.1033
353.478	0.1012
353.847	0.1
354.217	0.0987
354.586	0.0977
354.955	0.0973
355.324	0.0961
355.693	0.0964
356.062	0.0952
356.43	0.0954
356.799	0.0935
357.168	0.0934
357.537	0.0906
357.906	0.0908
358.274	0.0881
358.643	0.0888
359.011	0.0867
359.38	0.087
359.749	0.0865
360.117	0.088
360.486	0.0869
360.854	0.0869
361.222	0.0855
361.591	0.0848
361.959	0.0834
362.327	0.0838
362.695	0.0847
363.064	0.0846
363.432	0.0829
363.8	0.081
364.168	0.0805
364.536	0.0795
364.904	0.0781
365.272	0.0767
365.64	0.0767
366.008	0.0782
366.376	0.0767
366.743	0.0751
367.111	0.0735
367.479	0.0728
367.847	0.0758
368.214	0.0751
368.582	0.0775
368.949	0.0757
369.317	0.0738
369.684	0.0693
370.052	0.0668
370.419	0.0678
370.787	0.0719
371.154	0.0726
371.521	0.0732
371.889	0.0695
372.256	0.0691
372.623	0.0671
372.99	0.0674
373.357	0.0666
373.724	0.0673
374.091	0.0682
374.458	0.0666
374.825	0.0653
375.192	0.064
375.559	0.0647
375.926	0.0638
376.293	0.0634
376.659	0.0634
377.026	0.0633
377.393	0.0644
377.759	0.0648
378.126	0.0642
378.492	0.0607
378.859	0.0594
379.225	0.0589
379.592	0.061
379.958	0.0599
380.325	0.0586
380.691	0.0567
381.057	0.0571
381.423	0.0587
381.79	0.0576
382.156	0.0552
382.522	0.0552
382.888	0.056
383.254	0.057
383.62	0.0558
383.986	0.0543
384.352	0.0542
384.718	0.055
385.084	0.0558
385.449	0.0537
385.815	0.0528
386.181	0.0532
386.547	0.0552
386.912	0.0538
387.278	0.053
387.643	0.0512
388.009	0.053
388.374	0.051
388.74	0.0528
389.105	0.0509
389.471	0.0516
389.836	0.0503
390.201	0.0505
390.566	0.0513
390.932	0.052
391.297	0.0487
391.662	0.0474
392.027	0.0463
392.392	0.0474
392.757	0.0455
393.122	0.0453
393.487	0.0487
393.852	0.0501
394.217	0.0475
394.582	0.0463
394.946	0.0454
395.311	0.046
395.676	0.0427
396.04	0.044
396.405	0.0446
396.77	0.0471
397.134	0.0435
397.499	0.0427
397.863	0.0405
398.227	0.0436
398.592	0.0421
398.956	0.0425
399.32	0.0425
399.685	0.0424
400.049	0.0417
400.413	0.0383
400.777	0.0375
401.141	0.0376
401.505	0.0393
401.869	0.0387
402.233	0.0384
402.597	0.0368
402.961	0.0377
403.325	0.0393
403.689	0.0407
404.053	0.0415
404.416	0.0391
404.78	0.0385
405.144	0.0374
405.507	0.0372
405.871	0.0362
406.234	0.0352
406.598	0.034
406.961	0.0341
407.325	0.0338
407.688	0.0345
408.051	0.0339
408.415	0.0375
408.778	0.036
409.141	0.036
409.504	0.0335
409.867	0.0327
410.23	0.0343
410.593	0.0333
410.956	0.035
411.319	0.0328
411.682	0.0308
412.045	0.0312
412.408	0.0296
412.771	0.0323
413.134	0.0307
413.496	0.0326
413.859	0.0322
414.222	0.0327
414.584	0.0335
414.947	0.0338
415.309	0.0332
415.672	0.0328
416.034	0.0323
416.396	0.0311
416.759	0.0307
417.121	0.0305
417.483	0.0299
417.846	0.0281
418.208	0.0263
418.57	0.0262
418.932	0.0258
419.294	0.0279
419.656	0.0278
420.018	0.0279
420.38	0.0247
420.742	0.0239
421.104	0.0257
421.466	0.0257
421.827	0.0258
422.189	0.0241
422.551	0.0255
422.912	0.0273
423.274	0.0269
423.636	0.0263
423.997	0.025
424.359	0.0243
424.72	0.0256
425.081	0.027
425.443	0.0277
425.804	0.0276
426.165	0.0266
426.527	0.0259
426.888	0.0244
427.249	0.0239
427.61	0.0239
427.971	0.0227
428.332	0.0233
428.693	0.0231
429.054	0.0236
429.415	0.0212
429.776	0.0189
430.137	0.0181
430.498	0.0201
430.858	0.0242
431.219	0.0248
431.58	0.0239
431.94	0.0231
432.301	0.0221
432.661	0.0197
433.022	0.0182
433.382	0.0185
433.743	0.022
434.103	0.0227
434.463	0.0235
434.824	0.0215
435.184	0.0206
435.544	0.0202
435.904	0.0225
436.264	0.0234
436.624	0.0233
436.985	0.0203
437.345	0.022
437.704	0.0214
438.064	0.0226
438.424	0.0186
438.784	0.017
439.144	0.0166
439.504	0.0177
439.863	0.0199
440.223	0.0197
440.583	0.0194
440.942	0.0183
441.302	0.0189
441.661	0.018
442.021	0.0196
442.38	0.0181
442.739	0.0169
443.099	0.0136
443.458	0.0151
443.817	0.0164
444.176	0.0181
444.536	0.0175
444.895	0.0191
445.254	0.0186
445.613	0.0173
445.972	0.0157
446.331	0.0147
446.69	0.0159
447.049	0.0128
447.407	0.0122
447.766	0.0121
448.125	0.0158
448.484	0.0186
448.842	0.017
449.201	0.0166
449.559	0.0142
449.918	0.0184
450.276	0.0187
450.635	0.0203
450.993	0.0173
451.352	0.0167
451.71	0.0159
452.068	0.016
452.426	0.0147
452.785	0.0147
453.143	0.0123
453.501	0.0147
453.859	0.0141
454.217	0.0186
454.575	0.0152
454.933	0.0147
455.291	0.0128
455.649	0.0141
456.006	0.0149
456.364	0.0133
456.722	0.0124
457.079	0.0119
457.437	0.0134
457.795	0.0152
458.152	0.015
458.51	0.0159
458.867	0.0158
459.225	0.0167
459.582	0.0121
459.939	0.0106
460.297	0.0103
460.654	0.0129
461.011	0.0149
461.368	0.015
461.725	0.0151
462.082	0.0138
462.44	0.0099
462.797	0.0069
463.153	0.0079
463.51	0.0084
463.867	0.0116
464.224	0.0123
464.581	0.0162
464.938	0.017
465.294	0.0177
465.651	0.0177
466.008	0.0131
466.364	0.0113
466.721	0.0083
467.077	0.008
467.434	0.0066
467.79	0.0074
468.146	0.0094
468.503	0.0088
468.859	0.0089
469.215	0.0097
469.571	0.0094
469.927	0.0127
470.284	0.0132
470.64	0.014
470.996	0.0119
471.352	0.0106
471.707	0.0111
472.063	0.0118
472.419	0.0107
472.775	0.0109
473.131	0.0111
473.486	0.0098
473.842	0.0086
474.198	0.0069
474.553	0.0077
474.909	0.009
475.264	0.0093
475.62	0.0114
475.975	0.012
476.331	0.0108
476.686	0.0111
477.041	0.0107
477.396	0.0092
477.752	0.0091
478.107	0.008
478.462	0.0107
478.817	0.0093
479.172	0.0096
479.527	0.0074
479.882	0.0076
480.237	0.0078
480.591	0.0088
480.946	0.0091
481.301	0.0096
481.656	0.0101
482.01	0.0083
482.365	0.0075
482.72	0.0095
483.074	0.0102
483.429	0.0093
483.783	0.0092
484.137	0.0082
484.492	0.0085
484.846	0.0054
485.2	0.009
485.555	0.0101
485.909	0.011
486.263	0.0077
486.617	0.0077
486.971	0.0074
487.325	0.0084
487.679	0.0059
488.033	0.0078
488.387	0.0086
488.741	0.0081
489.094	0.0076
489.448	0.0071
489.802	0.0099
490.156	0.0089
490.509	0.0096
490.863	0.0084
491.216	0.0065
491.57	0.0048
491.923	0.005
492.277	0.0068
492.63	0.0072
492.983	0.0069
493.337	0.0061
493.69	0.0054
494.043	0.0051
494.396	0.0052
494.749	0.0056
495.102	0.0053
495.455	0.0047
495.808	0.0052
496.161	0.0051
496.514	0.0057
496.867	0.0052
497.22	0.0046
497.572	0.0034
497.925	0.0048
498.278	0.007
498.63	0.0078
498.983	0.0035
499.335	0.0029
499.688	0.004
500.04	0.0045
500.393	0.0031
500.745	0.0026
501.097	0.0034
501.449	0.0054
501.802	0.0042
502.154	0.0051
502.506	0.0047
502.858	0.0048
503.21	0.006
503.562	0.0032
503.914	0.0035
504.266	0.0013
504.618	0.0035
504.969	0.0047
505.321	0.0048
505.673	0.006
506.025	0.005
506.376	0.0042
506.728	0.0045
507.079	0.0057
507.431	0.0075
507.782	0.007
508.134	0.0051
508.485	0.0067
508.836	0.0065
509.188	0.0073
509.539	0.0032
509.89	0.0041
510.241	0.0029
510.592	0.0029
510.943	-0.0004
511.294	0.0019
511.645	0.0026
511.996	0.0051
512.347	0.0025
512.698	0.0034
513.049	0.0031
513.399	0.0051
513.75	0.0065
514.101	0.0056
514.451	0.0061
514.802	0.0039
515.152	0.0008
515.503	0.0007
515.853	0.0038
516.203	0.0089
516.554	0.0059
516.904	0.0041
517.254	0.0026
517.604	0.0046
517.955	0.0042
518.305	0.0003
518.655	0.0007
519.005	-0.0004
519.355	0.0012
519.705	-0.0013
520.055	-0.0013
520.404	-0
520.754	0.0017
521.104	0.0039
521.454	0.0023
521.803	0.0012
522.153	-0.0009
522.502	0.0006
522.852	0.0053
523.201	0.0063
523.551	0.0067
523.9	0.0008
524.249	-0.0003
524.599	-0.0011
524.948	0.0018
525.297	0.0044
525.646	0.0026
525.995	0.0016
526.344	0.0023
526.694	0.0038
527.042	0.0025
527.391	-0.001
527.74	0.0007
528.089	0.0027
528.438	0.0048
528.787	0.001
529.135	0.0001
529.484	-0.0035
529.833	-0.0025
530.181	-0.0049
530.53	-0.002
530.878	-0.0019
531.227	0.0012
531.575	-0.0003
531.923	0.001
532.271	-0.0006
532.62	0.0011
532.968	-0.0005
533.316	0.0005
533.664	0.0018
534.012	0.0041
534.36	0.0043
534.708	0.0027
535.056	-0.0005
535.404	-0.0006
535.752	0.0001
536.1	0.0001
536.447	0.0005
536.795	0.0008
537.143	0.0005
537.49	-0.001
537.838	-0.0025
538.185	-0.0001
538.533	0.001
538.88	0.0016
539.228	0.0008
539.575	-0.0012
539.922	-0.0004
540.269	-0.0019
540.617	-0.0005
540.964	-0.0037
541.311	-0.0026
541.658	-0.0031
542.005	-0.0016
542.352	0
542.699	-0.0005
543.045	0.0005
543.392	-0.001
543.739	-0.0013
544.086	-0.0046
544.432	-0.0048
544.779	-0.0057
545.126	-0.0035
545.472	-0.0021
545.819	0.0002
546.165	-0.0013
546.512	-0.0024
546.858	-0.0064
547.204	-0.0086
547.55	-0.0076
547.897	-0.0046
548.243	-0.0014
548.589	-0.0032
548.935	-0.0014
549.281	-0.002
549.627	-0.0032
549.973	-0.0068
550.319	-0.0083
550.665	-0.0057
551.01	-0.0018
551.356	0.0021
551.702	0.0006
552.048	0.0012
552.393	-0.0008
552.739	-0.0019
553.084	-0.0029
553.43	-0.0023
553.775	-0.0004
554.12	-0.0035
554.466	-0.0077
554.811	-0.0084
555.156	-0.0085
555.502	-0.0077
555.847	-0.005
556.192	-0.0045
556.537	-0.0015
556.882	-0.0055
557.227	-0.0034
557.572	-0.007
557.917	-0.0047
558.261	-0.0042
558.606	0
558.951	-0.0016
559.295	-0.0017
559.64	-0.0037
559.985	-0.001
560.329	-0.0015
560.674	-0.0004
561.018	0.0001
561.363	-0.0012
561.707	-0.0012
562.051	-0.0035
562.395	-0.0031
562.74	-0.0042
563.084	-0.003
563.428	-0.0033
563.772	-0.0053
564.116	-0.0059
564.46	-0.007
564.804	-0.0059
565.148	-0.006
565.492	-0.0055
565.835	-0.0056
566.179	-0.0054
566.523	-0.0028
566.866	-0.0012
567.21	0.0002
567.554	-0.0005
567.897	-0.0009
568.24	-0.0008
568.584	0.0001
568.927	0.0005
569.271	-0.0004
569.614	-0.0035
569.957	-0.0025
570.3	-0.0058
570.643	-0.0063
570.986	-0.0084
571.329	-0.0035
571.672	-0.0033
572.015	-0.0054
572.358	-0.0063
572.701	-0.0058
573.044	-0.0065
573.387	-0.0082
573.729	-0.0109
574.072	-0.0094
574.414	-0.0095
574.757	-0.0094
575.099	-0.0062
575.442	-0.0054
575.784	-0.0044
576.127	-0.0076
576.469	-0.0073
576.811	-0.0036
577.153	-0.0037
577.496	-0.0064
577.838	-0.008
578.18	-0.0069
578.522	-0.0034
578.864	-0.0045
579.206	-0.006
579.548	-0.009
579.889	-0.0075
580.231	-0.0092
580.573	-0.01
580.915	-0.0105
581.256	-0.0078
581.598	-0.0049
581.939	-0.0034
582.281	-0.0088
582.622	-0.0072
582.964	-0.0052
583.305	-0.0024
583.646	-0.005
583.988	-0.0156
584.329	-0.0141
584.67	-0.0111
585.011	-0.0056
585.352	-0.0012
585.693	-0.0053
586.034	-0.0041
586.375	-0.0045
586.716	-0.0039
587.057	-0.0049
587.398	-0.0119
587.738	-0.0121
588.079	-0.0099
588.42	-0.0059
588.76	-0.0037
589.101	-0.0039
589.441	-0.0061
589.782	-0.0074
590.122	-0.0111
590.463	-0.0104
590.803	-0.0089
591.143	-0.0046
591.483	-0.0022
591.823	-0.0015
592.164	-0.0032
592.504	-0.0068
592.844	-0.0085
593.184	-0.0083
593.523	-0.0069
593.863	-0.0061
594.203	-0.0081
594.543	-0.0107
594.883	-0.0089
595.222	-0.0083
595.562	-0.0103
595.901	-0.0109
596.241	-0.01
596.58	-0.0042
596.92	-0.0008
597.259	0.0022
597.599	-0.0015
597.938	-0.0084
598.277	-0.0072
598.616	-0.0041
598.955	-0.0028
599.295	-0.0078
599.634	-0.0118
599.973	-0.0138
600.312	-0.012
600.65	-0.0086
600.989	-0.0042
601.328	-0.0021
601.667	-0.0086
602.005	-0.0072
602.344	-0.009
602.683	-0.0083
603.021	-0.0108
603.36	-0.0079
603.698	-0.005
604.037	-0.0048
604.375	-0.0039
604.713	-0.0038
605.052	-0.0023
605.39	-0.0073
605.728	-0.0056
606.066	-0.0095
606.404	-0.0104
606.742	-0.0098
607.08	-0.0072
607.418	-0.0049
607.756	-0.0075
608.094	-0.0106
608.431	-0.009
608.769	-0.0118
609.107	-0.0079
609.444	-0.0115
609.782	-0.0067
610.12	-0.0083
610.457	-0.0075
610.794	-0.0074
611.132	-0.0072
611.469	-0.0062
611.806	-0.005
612.144	-0.0047
612.481	-0.0057
612.818	-0.0079
613.155	-0.01
613.492	-0.0084
613.829	-0.0078
614.166	-0.0072
614.503	-0.0077
614.84	-0.0081
615.176	-0.0084
615.513	-0.009
615.85	-0.0098
616.187	-0.009
616.523	-0.0081
616.86	-0.0079
617.196	-0.0095
617.533	-0.0132
617.869	-0.0109
618.205	-0.0078
618.542	-0.0032
618.878	-0.0016
619.214	-0.0059
619.55	-0.0092
619.886	-0.0135
620.222	-0.0109
620.558	-0.0118
620.894	-0.0075
621.23	-0.0068
621.566	-0.0056
621.902	-0.0071
622.238	-0.0053
622.573	-0.0049
622.909	-0.0071
623.244	-0.0117
623.58	-0.0113
623.916	-0.0089
624.251	-0.0072
624.586	-0.0107
624.922	-0.0129
625.257	-0.0082
625.592	-0.0077
625.927	-0.0048
626.263	-0.0106
626.598	-0.0108
626.933	-0.0122
627.268	-0.01
627.603	-0.0082
627.938	-0.0089
628.272	-0.0088
628.607	-0.0093
628.942	-0.0087
629.277	-0.0083
629.611	-0.0095
629.946	-0.01
630.281	-0.0107
630.615	-0.0085
630.949	-0.0057
631.284	-0.0051
631.618	-0.0064
631.953	-0.0102
632.287	-0.0089
632.621	-0.0047
632.955	-0.0045
633.289	-0.0038
633.623	-0.0016
633.957	0.0015
634.291	-0.0012
634.625	-0.0069
634.959	-0.0094
635.293	-0.0094
635.627	-0.013
635.96	-0.0093
636.294	-0.0129
636.627	-0.0098
636.961	-0.0118
637.294	-0.01
637.628	-0.0104
637.961	-0.0094
638.295	-0.0061
638.628	-0.0074
638.961	-0.0091
639.294	-0.0108
639.628	-0.0079
639.961	-0.0067
640.294	-0.0038
640.627	-0.0074
640.96	-0.011
641.293	-0.0146
641.625	-0.013
641.958	-0.009
642.291	-0.0026
642.624	-0.0014
642.956	-0.0042
643.289	-0.0097
643.621	-0.013
643.954	-0.0159
644.286	-0.0212
644.619	-0.0158
644.951	-0.0108
645.283	-0.0045
645.616	-0.0047
645.948	-0.0066
646.28	-0.0074
646.612	-0.0107
646.944	-0.0091
647.276	-0.0077
647.608	-0.0081
647.94	-0.0101
648.272	-0.0081
648.603	-0.0072
648.935	-0.0064
649.267	-0.0096
649.598	-0.0103
649.93	-0.0119
650.261	-0.0096
650.593	-0.0062
650.924	-0.0033
651.256	-0.0056
651.587	-0.0079
651.918	-0.0059
652.25	-0.0066
652.581	-0.008
652.912	-0.0092
653.243	-0.006
653.574	-0.0047
653.905	-0.0082
654.236	-0.0098
654.567	-0.0111
654.897	-0.0085
655.228	-0.0069
655.559	-0.0061
655.89	-0.0088
656.22	-0.0106
656.551	-0.008
656.881	-0.0069
657.212	-0.0079
657.542	-0.0084
657.872	-0.01
658.203	-0.011
658.533	-0.0346
658.863	-0.0289
659.193	-0.0165
659.523	-0.0084
659.853	0.0053
660.183	-0.0059
660.513	-0.0074
660.843	-0.0073
661.173	-0.0066
661.503	-0.0042
661.833	-0.0036
662.162	-0.0042
662.492	-0.0028
662.822	-0.0076
663.151	-0.0114
663.481	-0.0147
663.81	-0.0153
664.139	-0.0113
664.469	-0.0149
664.798	-0.0104
665.127	-0.0115
665.456	-0.0027
665.785	-0.005
666.114	-0.0041
666.443	-0.0105
666.772	-0.0061
667.101	-0.0094
667.43	-0.0099
667.759	-0.0111
668.088	-0.0084
668.416	-0.0102
668.745	-0.014
669.074	-0.0152
669.402	-0.0116
669.731	-0.0091
670.059	-0.0097
670.388	-0.0065
670.716	-0.006
671.044	-0.0026
671.372	-0.0065
671.701	-0.0103
672.029	-0.0128
672.357	-0.0141
672.685	-0.0131
673.013	-0.0127
673.341	-0.0052
673.669	-0.0035
673.996	-0.0035
674.324	-0.0144
674.652	-0.0129
674.98	-0.0099
675.307	-0.0056
675.635	-0.0079
675.962	-0.0094
676.29	-0.0112
676.617	-0.0075
676.945	-0.0049
677.272	-0.0029
677.599	-0.0039
677.926	-0.0077
678.253	-0.0069
678.581	-0.0073
678.908	-0.0104
679.235	-0.0114
679.561	-0.0096
679.888	-0.0035
680.215	-0.0018
680.542	-0.0064
680.869	-0.011
681.195	-0.0099
681.522	-0.0094
681.849	-0.0083
682.175	-0.0118
682.502	-0.0107
682.828	-0.0098
683.154	-0.0098
683.481	-0.0096
683.807	-0.0109
684.133	-0.0136
684.459	-0.0103
684.785	-0.0086
685.111	-0.008
685.437	-0.0107
685.763	-0.0139
686.089	-0.0136
686.415	-0.0164
686.741	-0.0141
687.067	-0.0111
687.392	-0.0101
687.718	-0.0103
688.043	-0.0112
688.369	-0.0104
688.694	-0.0072
689.02	-0.0105
689.345	-0.0069
689.67	-0.0107
689.996	-0.0061
690.321	-0.0088
690.646	-0.0108
690.971	-0.0098
691.296	-0.0094
691.621	-0.0097
691.946	-0.0102
692.271	-0.0121
692.596	-0.0077
692.921	-0.0061
693.245	0.0002
693.57	-0.0024
693.895	-0.0055
694.219	-0.0117
694.544	-0.0117
694.868	-0.0095
695.193	-0.0087
695.517	-0.0057
695.841	-0.0101
696.166	-0.0128
696.49	-0.0145
696.814	-0.0105
697.138	-0.0076
697.462	-0.0093
697.786	-0.0094
698.11	-0.0106
698.434	-0.0103
698.758	-0.0117
699.081	-0.0108
699.405	-0.0096
699.729	-0.0132
700.052	-0.0178
700.376	-0.0137
700.7	-0.0109
701.023	-0.011
701.346	-0.0183
701.67	-0.0156
701.993	-0.0129
702.316	-0.0087
702.639	-0.0133
702.963	-0.0146
703.286	-0.0133
703.609	-0.0114
703.932	-0.0082
704.255	-0.0088
704.578	-0.0076
704.9	-0.0075
705.223	-0.008
705.546	-0.0076
705.868	-0.0086
706.191	-0.0128
706.514	-0.017
706.836	-0.0138
707.159	-0.012
707.481	-0.0073
707.803	-0.0079
708.126	-0.0035
708.448	-0.0103
708.77	-0.0157
709.092	-0.0173
709.414	-0.0127
709.736	-0.0104
710.058	-0.0115
710.38	-0.012
710.702	-0.0083
711.024	-0.0073
711.345	-0.0051
711.667	-0.0071
711.989	-0.0066
712.31	-0.0027
712.632	-0.0043
712.953	-0.0016
713.275	-0.0069
713.596	-0.0044
713.917	-0.0064
714.239	-0.0127
714.56	-0.0159
714.881	-0.0147
715.202	-0.0118
715.523	-0.0111
715.844	-0.012
716.165	-0.014
716.486	-0.0149
716.807	-0.0153
717.128	-0.0103
717.448	-0.0084
717.769	-0.0075
718.09	-0.0043
718.41	-0.0023
718.731	-0.0014
719.051	-0.0044
719.372	-0.0065
719.692	-0.0102
720.012	-0.0142
720.332	-0.0148
720.653	-0.0105
720.973	-0.008
721.293	-0.0102
721.613	-0.0117
721.933	-0.0096
722.253	-0.0027
722.573	-0.005
722.892	-0.0062
723.212	-0.0133
723.532	-0.015
723.851	-0.0107
724.171	-0.0099
724.491	-0.0102
724.81	-0.0184
725.129	-0.0146
725.449	-0.0133
725.768	-0.0123
726.087	-0.0139
726.407	-0.0094
726.726	-0.007
727.045	-0.0085
727.364	-0.0118
727.683	-0.0097
728.002	-0.0101
728.321	-0.0093
728.64	-0.0093
728.958	-0.0081
729.277	-0.0094
729.596	-0.0073
729.914	-0.0052
730.233	-0.0035
730.551	-0.0073
730.87	-0.0099
731.188	-0.0073
731.507	-0.0076
731.825	-0.0078
732.143	-0.0116
732.461	-0.011
732.779	-0.0081
733.097	-0.0112
733.415	-0.0126
733.733	-0.0178
734.051	-0.0149
734.369	-0.013
734.687	-0.0103
735.005	-0.009
735.322	-0.0071
735.64	-0.0112
735.957	-0.0095
736.275	-0.0082
736.592	-0.0034
736.91	-0.0068
737.227	-0.0109
737.544	-0.0119
737.862	-0.0082
738.179	-0.007
738.496	-0.0072
738.813	-0.0109
739.13	-0.0118
739.447	-0.0067
739.764	-0.0128
740.081	-0.0138
740.398	-0.0193
740.714	-0.0129
741.031	-0.0116
741.348	-0.0121
741.664	-0.0126
741.981	-0.0173
742.297	-0.0143
742.614	-0.0125
742.93	-0.0081
743.246	-0.0103
743.563	-0.0144
743.879	-0.0195
744.195	-0.016
744.511	-0.0175
744.827	-0.0106
745.143	-0.0166
745.459	-0.0176
745.775	-0.0172
746.091	-0.0147
746.406	-0.0111
746.722	-0.0123
747.038	-0.0107
747.353	-0.0099
747.669	-0.0117
747.984	-0.0142
748.3	-0.0131
748.615	-0.0215
748.93	-0.0187
749.246	-0.0186
749.561	-0.0115
749.876	-0.0113
750.191	-0.0115
750.506	-0.0112
750.821	-0.0109
751.136	-0.0112
751.451	-0.0104
751.766	-0.0099
752.08	-0.0119
752.395	-0.0099
752.71	-0.0119
753.024	-0.0118
753.339	-0.0091
753.653	-0.0116
753.968	-0.0124
754.282	-0.0211
754.596	-0.0125
754.911	-0.0117
755.225	-0.0015
755.539	-0.0082
755.853	-0.0017
756.167	-0.0063
756.481	-0.0037
756.795	-0.0079
757.109	-0.0058
757.423	-0.0102
757.736	-0.0095
758.05	-0.013
758.364	-0.0088
758.677	-0.0127
758.991	-0.0109
759.304	-0.0132
759.618	-0.0108
759.931	-0.0118
760.244	-0.0096
760.558	-0.0096
760.871	-0.0121
761.184	-0.0118
761.497	-0.0079
761.81	-0.0058
762.123	-0.0126
762.436	-0.0202
762.749	-0.0206
763.062	-0.0152
763.374	-0.0148
763.687	-0.0129
764	-0.013
764.312	-0.0065
764.625	-0.0049
764.937	-0.0065
765.25	-0.0115
765.562	-0.0152
765.874	-0.015
766.186	-0.015
766.499	-0.015
766.811	-0.0167
767.123	-0.0206
767.435	-0.0187
767.747	-0.0168
768.059	-0.0101
768.37	-0.011
768.682	-0.0085
768.994	-0.0158
769.306	-0.0139
769.617	-0.0146
769.929	-0.0081
770.24	-0.008
770.552	-0.0125
770.863	-0.0198
771.174	-0.0181
771.486	-0.0144
771.797	-0.0094
772.108	-0.0121
772.419	-0.0125
772.73	-0.0147
773.041	-0.0152
773.352	-0.0146
773.663	-0.0116
773.974	-0.0076
774.285	-0.0042
774.595	-0.0053
774.906	-0.0083
775.217	-0.0133
775.527	-0.0133
775.838	-0.0154
776.148	-0.0128
776.458	-0.0128
776.769	-0.0098
777.079	-0.0114
777.389	-0.0144
777.699	-0.0115
778.009	-0.0125
778.319	-0.008
778.629	-0.0112
778.939	-0.0105
779.249	-0.0091
779.559	-0.0113
779.869	-0.0143
780.178	-0.017
780.488	-0.0162
780.798	-0.0126
781.107	-0.0112
781.417	-0.0146
781.726	-0.0181
782.035	-0.0212
782.345	-0.0116
782.654	-0.01
782.963	-0.0057
783.272	-0.0067
783.581	-0.0087
783.89	-0.0121
784.199	-0.0142
784.508	-0.0151
784.817	-0.0184
785.126	-0.0221
785.434	-0.0181
785.743	-0.013
786.052	-0.0107
786.36	-0.0163
786.669	-0.0195
786.977	-0.0209
787.285	-0.0164
787.594	-0.015
787.902	-0.013
788.21	-0.0165
788.518	-0.0124
788.826	-0.0111
789.135	-0.0065
789.442	-0.0111
789.75	-0.0097
790.058	-0.0125
790.366	-0.0096
790.674	-0.0168
790.981	-0.0141
791.289	-0.0146
791.597	-0.0138
791.904	-0.0115
792.212	-0.0144
792.519	-0.0109
792.826	-0.012
793.134	-0.0058
793.441	-0.0028
793.748	-0.0022
794.055	-0.0067
794.362	-0.0117
794.669	-0.0121
794.976	-0.0108
795.283	-0.0104
795.59	-0.0147
795.897	-0.014
796.203	-0.0168
796.51	-0.021
796.817	-0.0245
797.123	-0.0204
797.43	-0.0156
797.736	-0.0121
798.042	-0.0145
798.349	-0.0135
798.655	-0.0115
798.961	-0.0095
799.267	-0.0097
799.573	-0.0107
799.879	-0.0182
800.185	-0.0159
800.491	-0.0159
800.797	-0.0074
801.103	-0.0101
801.408	-0.0145
801.714	-0.0146
802.02	-0.0152
802.325	-0.0106
802.631	-0.0144
802.936	-0.0183
803.242	-0.0209
803.547	-0.0259
803.852	-0.0248
804.157	-0.0258
804.462	-0.0157
804.768	-0.0137
805.073	-0.0118
805.378	-0.0155
805.682	-0.015
805.987	-0.0156
806.292	-0.0097
806.597	-0.0057
806.902	-0.0095
807.206	-0.0151
807.511	-0.02
807.815	-0.0181
808.12	-0.017
808.424	-0.0128
808.728	-0.0114
809.033	-0.0125
809.337	-0.0166
809.641	-0.0156
809.945	-0.0191
810.249	-0.0145
810.553	-0.0144
810.857	-0.0147
811.161	-0.013
811.465	-0.0151
811.768	-0.0122
812.072	-0.0184
812.376	-0.0117
812.679	-0.0109
812.983	-0.0069
813.286	-0.0132
813.59	-0.0162
813.893	-0.0108
814.196	-0.0073
814.499	0.0012
814.803	-0.0066
815.106	-0.0168
815.409	-0.0186
815.712	-0.0185
816.015	-0.018
816.318	-0.025
816.62	-0.0235
816.923	-0.0139
817.226	-0.0137
817.528	-0.0107
817.831	-0.0122
818.133	-0.0096
818.436	-0.0148
818.738	-0.0161
819.041	-0.0132
819.343	-0.0095
819.645	-0.0125
819.947	-0.0121
820.249	-0.0213
820.551	-0.0198
820.853	-0.0197
821.155	-0.0147
821.457	-0.0097
821.759	-0.0115
822.061	-0.0105
822.362	-0.0093
822.664	-0.0062
822.966	0.0021
823.267	-0.0059
823.569	-0.0093
823.87	-0.0192
824.171	-0.0121
824.473	-0.0124
824.774	-0.0049
825.075	-0.0067
825.376	-0.002
825.677	-0.0001
825.978	-0.0024
826.279	-0.0105
826.58	-0.0129
826.881	-0.0185
827.181	-0.0077
827.482	-0.0122
827.783	-0.0088
828.083	-0.0164
828.384	-0.0207
828.684	-0.02
828.985	-0.0126
829.285	-0.0143
829.585	-0.0135
829.885	-0.0207
830.185	-0.0189
830.486	-0.0253
830.786	-0.0169
831.086	-0.0111
831.385	-0.0034
831.685	-0.0145
831.985	-0.0232
832.285	-0.0228
832.585	-0.0134
832.884	-0.0059
833.184	0.0009
833.483	-0.0115
833.783	-0.0088
834.082	-0.0217
834.381	-0.0153
834.681	-0.0248
834.98	-0.0182
835.279	-0.024
835.578	-0.0231
835.877	-0.0267
836.176	-0.0179
836.475	-0.0074
836.774	-0.0113
837.072	-0.0127
837.371	-0.0134
837.67	-0.0041
837.968	-0.0047
838.267	-0.0121
838.565	-0.017
838.864	-0.0178
839.162	-0.0176
839.46	-0.0207
839.759	-0.0134
840.057	-0.0105
840.355	-0.0032
840.653	-0.0066
840.951	-0.0152
841.249	-0.0131
841.547	-0.0069
841.845	0.0111
842.142	0.0114
842.44	-0.0027
842.738	-0.0193
843.035	-0.0339
843.333	-0.0333
843.63	-0.0289
843.928	-0.0149
844.225	-0.0052
844.522	-0.0084
844.82	-0.0161
845.117	-0.0275
845.414	-0.0261
845.711	-0.0155
846.008	0.0076
846.305	0.0105
846.602	-0.003
846.898	-0.0173
847.195	-0.0229
847.492	-0.0201
847.788	-0.0293
848.085	-0.0178
848.382	-0.0118
848.678	-0.0135
848.974	-0.0112
849.271	-0.0071
849.567	-0.003
849.863	-0.0119
850.159	-0.022
850.455	-0.0219
850.751	-0.0195
851.047	-0.0194
851.343	-0.0171
851.639	-0.0164
851.935	-0.0198
852.23	-0.0276
852.526	-0.0292
852.822	-0.0125
853.117	-0.0012
853.413	0.0094
853.708	-0.0068
854.003	0.0071
854.299	0.0065
854.594	0.0129
854.889	-0.0033
855.184	-0.007
855.479	0.0032
855.774	0.0169
856.069	0.0058
856.364	-0.0039
856.659	-0.0265
856.954	-0.0063
857.248	-0.0108
857.543	0.0104
857.837	-0.0083
858.132	0.0066
858.426	-0.0088
858.721	-0.0066
859.015	-0.0131
859.309	-0.0213
859.604	-0.0102
859.898	-0.0088
860.192	0.0102
860.486	0.0015
860.78	0.0047
861.074	0.0088
861.367	0.0136
861.661	0.0101
861.955	-0.001
862.248	-0.0113
862.542	-0.0179
862.836	-0.003
863.129	-0.0025
863.422	0.0056
863.716	-0.0142
864.009	0.0013
864.302	-0.0221
864.595	-0.0197
864.889	-0.0315
865.182	-0.0146
865.475	-0.0257
865.767	-0.0233
866.06	-0.0191
866.353	-0.0251
866.646	-0.0297
866.938	-0.0454
867.231	-0.0394
867.524	-0.0207
867.816	0.0029
868.109	0.022
868.401	0.0193
868.693	0.0153
868.985	0.0088
869.278	-0.0014
869.57	-0.0005
869.862	-0.0164
870.154	-0.0319
870.446	-0.0581
870.738	-0.0584
871.029	-0.0415
871.321	-0.0078
871.613	0.0235
871.904	0.0174
872.196	-0.0034
872.487	-0.0133
872.779	-0.0153
873.07	-0.0014
873.362	-0.0134
873.653	0.0014
873.944	-0.022
874.235	-0.0245
874.526	-0.0451
874.817	-0.0291
875.108	-0.0085
875.399	0.0064
875.69	0.02
875.981	-0.0086
876.271	-0.0244
876.562	-0.0487
876.853	-0.0442
877.143	-0.0409
877.434	-0.0293
877.724	-0.0437
878.014	-0.0149
878.305	-0.0301
878.595	-0.0021
878.885	-0.0171
879.175	-0.0093
879.465	-0.0032
879.755	-0.0071
880.045	0.0188
880.335	0.0171
880.624	0.0285
880.914	0.0285
