Data from 19SS01LI_072217_1a_Absorbance_18-39-39-977.txt Node
Date: Fri Jul 28 18:39:39 MDT 2017
User: Tank Lab
Spectrometer: FLMS01220
Trigger mode: 0
Integration Time (sec): 1.000000E-1
Scans to average: 10
Electric dark correction enabled: true
Nonlinearity correction enabled: false
Boxcar width: 1
XAxis mode: Wavelengths
Number of Pixels in Spectrum: 2048
>>>>>Begin Spectral Data<<<<<
179.47	1.2152
179.856	1.2152
180.241	-0
180.626	-0
181.011	0.9264
181.396	0.6549
181.781	1.7712
182.166	-0
182.551	-0
182.936	-0
183.321	-0
183.706	-0
184.091	-0.2185
184.476	-0.5492
184.86	-0
185.245	-0
185.63	1.2282
186.015	0.4555
186.399	0.5837
186.784	-0
187.169	-0
187.553	-0
187.938	-0
188.322	-0.0417
188.707	-0.0031
189.091	0.0333
189.475	0.0486
189.86	0.0721
190.244	0.071
190.629	0.1065
191.013	0.1238
191.397	0.1803
191.781	0.2041
192.165	0.2391
192.55	0.2526
192.934	0.2677
193.318	0.2617
193.702	0.2814
194.086	0.2747
194.47	0.2814
194.854	0.2828
195.238	0.2795
195.622	0.2785
196.006	0.2667
196.389	0.2618
196.773	0.2524
197.157	0.2609
197.541	0.2752
197.924	0.2736
198.308	0.267
198.692	0.262
199.075	0.2641
199.459	0.2587
199.843	0.2587
200.226	0.2562
200.61	0.2628
200.993	0.264
201.376	0.2668
201.76	0.2615
202.143	0.2565
202.527	0.2559
202.91	0.2552
203.293	0.2514
203.676	0.2455
204.059	0.2436
204.443	0.2457
204.826	0.2543
205.209	0.2554
205.592	0.2593
205.975	0.2521
206.358	0.2538
206.741	0.2508
207.124	0.2546
207.507	0.252
207.89	0.2492
208.273	0.2469
208.655	0.2452
209.038	0.2434
209.421	0.2394
209.804	0.2372
210.186	0.2372
210.569	0.2347
210.951	0.2345
211.334	0.2299
211.717	0.2319
212.099	0.2287
212.482	0.2307
212.864	0.2275
213.246	0.2283
213.629	0.2257
214.011	0.2255
214.393	0.2231
214.776	0.2184
215.158	0.2135
215.54	0.2084
215.922	0.2052
216.305	0.205
216.687	0.2063
217.069	0.2054
217.451	0.2023
217.833	0.1984
218.215	0.1958
218.597	0.1936
218.979	0.1885
219.361	0.1858
219.742	0.182
220.124	0.1819
220.506	0.1802
220.888	0.1774
221.27	0.1748
221.651	0.1724
222.033	0.1687
222.415	0.1639
222.796	0.163
223.178	0.1627
223.559	0.161
223.941	0.1553
224.322	0.1509
224.704	0.1467
225.085	0.1456
225.466	0.1424
225.848	0.1427
226.229	0.14
226.61	0.1393
226.992	0.1358
227.373	0.1338
227.754	0.132
228.135	0.1303
228.516	0.1281
228.897	0.1263
229.278	0.1241
229.659	0.1228
230.04	0.1207
230.421	0.1185
230.802	0.1159
231.183	0.1161
231.564	0.1174
231.944	0.115
232.325	0.1118
232.706	0.1083
233.087	0.1084
233.467	0.1074
233.848	0.1071
234.229	0.1071
234.609	0.1066
234.99	0.1036
235.37	0.1018
235.751	0.1001
236.131	0.0999
236.511	0.099
236.892	0.0985
237.272	0.097
237.652	0.0975
238.033	0.0975
238.413	0.0981
238.793	0.0948
239.173	0.0924
239.553	0.0915
239.933	0.0925
240.313	0.0928
240.694	0.0906
241.074	0.089
241.453	0.0875
241.833	0.088
242.213	0.088
242.593	0.0867
242.973	0.0869
243.353	0.0843
243.732	0.0847
244.112	0.0842
244.492	0.0848
244.872	0.0852
245.251	0.0841
245.631	0.0846
246.01	0.0827
246.39	0.0825
246.769	0.0825
247.149	0.0837
247.528	0.0849
247.908	0.0844
248.287	0.0842
248.666	0.0832
249.045	0.0828
249.425	0.0814
249.804	0.0805
250.183	0.0804
250.562	0.0806
250.941	0.0803
251.32	0.0797
251.699	0.0796
252.078	0.0793
252.457	0.0785
252.836	0.0776
253.215	0.0777
253.594	0.077
253.973	0.0781
254.352	0.0764
254.731	0.0767
255.109	0.0757
255.488	0.0768
255.867	0.0767
256.245	0.0755
256.624	0.0755
257.002	0.0752
257.381	0.076
257.759	0.0752
258.138	0.0749
258.516	0.0737
258.895	0.0737
259.273	0.0739
259.651	0.0744
260.03	0.0738
260.408	0.0727
260.786	0.0724
261.164	0.0717
261.542	0.0729
261.921	0.073
262.299	0.074
262.677	0.0734
263.055	0.0727
263.433	0.0709
263.811	0.0691
264.188	0.0685
264.566	0.0685
264.944	0.0692
265.322	0.0708
265.7	0.0714
266.077	0.0697
266.455	0.0674
266.833	0.0674
267.21	0.0675
267.588	0.0679
267.966	0.0675
268.343	0.0677
268.721	0.0684
269.098	0.0682
269.475	0.0686
269.853	0.0671
270.23	0.0672
270.607	0.0664
270.985	0.0666
271.362	0.0646
271.739	0.0633
272.116	0.0628
272.494	0.0633
272.871	0.0656
273.248	0.0666
273.625	0.0667
274.002	0.0644
274.379	0.0622
274.756	0.0614
275.132	0.061
275.509	0.0614
275.886	0.0602
276.263	0.0606
276.64	0.0596
277.016	0.0602
277.393	0.061
277.77	0.0616
278.146	0.062
278.523	0.061
278.899	0.0603
279.276	0.0593
279.652	0.0589
280.029	0.0597
280.405	0.0594
280.782	0.0594
281.158	0.0586
281.534	0.0577
281.91	0.056
282.287	0.0559
282.663	0.0578
283.039	0.059
283.415	0.0584
283.791	0.0552
284.167	0.0538
284.543	0.0539
284.919	0.0559
285.295	0.0571
285.671	0.0568
286.047	0.0556
286.423	0.0537
286.799	0.0532
287.174	0.0525
287.55	0.052
287.926	0.0518
288.301	0.0538
288.677	0.0546
289.053	0.0537
289.428	0.0527
289.804	0.052
290.179	0.0525
290.555	0.0521
290.93	0.0518
291.305	0.052
291.681	0.0524
292.056	0.0535
292.431	0.052
292.806	0.0511
293.182	0.049
293.557	0.049
293.932	0.048
294.307	0.0475
294.682	0.0482
295.057	0.0482
295.432	0.0486
295.807	0.0477
296.182	0.0486
296.557	0.0486
296.932	0.0483
297.306	0.0478
297.681	0.0482
298.056	0.048
298.43	0.0468
298.805	0.0452
299.18	0.0456
299.554	0.0454
299.929	0.047
300.303	0.0468
300.678	0.0457
301.052	0.0466
301.427	0.0459
301.801	0.0468
302.175	0.0447
302.55	0.0457
302.924	0.0448
303.298	0.0439
303.672	0.0445
304.046	0.0444
304.421	0.0437
304.795	0.0425
305.169	0.0441
305.543	0.0446
305.917	0.045
306.291	0.044
306.664	0.0454
307.038	0.0445
307.412	0.0445
307.786	0.0428
308.16	0.043
308.533	0.0422
308.907	0.0417
309.281	0.0431
309.654	0.0419
310.028	0.0423
310.401	0.0403
310.775	0.0399
311.148	0.0403
311.522	0.0404
311.895	0.0424
312.268	0.042
312.642	0.0408
313.015	0.0412
313.388	0.0409
313.761	0.042
314.135	0.0404
314.508	0.04
314.881	0.0399
315.254	0.0381
315.627	0.0388
316	0.0397
316.373	0.0387
316.746	0.0382
317.118	0.0365
317.491	0.0388
317.864	0.0402
318.237	0.0398
318.61	0.0394
318.982	0.037
319.355	0.0381
319.727	0.0383
320.1	0.0395
320.473	0.039
320.845	0.0391
321.218	0.0387
321.59	0.0384
321.962	0.0372
322.335	0.0369
322.707	0.0373
323.079	0.0374
323.452	0.0375
323.824	0.0373
324.196	0.0377
324.568	0.0371
324.94	0.0367
325.312	0.0369
325.684	0.0361
326.056	0.0344
326.428	0.0333
326.8	0.0329
327.172	0.0332
327.544	0.0323
327.915	0.0315
328.287	0.0314
328.659	0.0328
329.031	0.0339
329.402	0.033
329.774	0.0327
330.145	0.032
330.517	0.0324
330.888	0.0305
331.26	0.0311
331.631	0.0305
332.003	0.0311
332.374	0.0294
332.745	0.0289
333.117	0.0282
333.488	0.0284
333.859	0.0307
334.23	0.0306
334.601	0.0299
334.972	0.0287
335.343	0.0286
335.714	0.0288
336.085	0.0281
336.456	0.0282
336.827	0.0289
337.198	0.0288
337.569	0.0281
337.94	0.0278
338.31	0.0287
338.681	0.0284
339.052	0.0291
339.422	0.0289
339.793	0.0295
340.164	0.0289
340.534	0.0289
340.905	0.0277
341.275	0.0263
341.645	0.0257
342.016	0.0281
342.386	0.0279
342.756	0.0283
343.127	0.0255
343.497	0.0256
343.867	0.0239
344.237	0.0252
344.607	0.0246
344.977	0.0259
345.347	0.0265
345.717	0.0267
346.087	0.0242
346.457	0.0241
346.827	0.0244
347.197	0.0267
347.567	0.0263
347.936	0.0255
348.306	0.0259
348.676	0.028
349.046	0.0284
349.415	0.0262
349.785	0.0236
350.154	0.0227
350.524	0.0243
350.893	0.0235
351.263	0.0242
351.632	0.0228
352.001	0.0221
352.371	0.0216
352.74	0.021
353.109	0.0226
353.478	0.0235
353.847	0.0234
354.217	0.0234
354.586	0.0207
354.955	0.0209
355.324	0.0201
355.693	0.0238
356.062	0.0253
356.43	0.0253
356.799	0.023
357.168	0.0232
357.537	0.0231
357.906	0.0238
358.274	0.0211
358.643	0.0208
359.011	0.0194
359.38	0.0209
359.749	0.0218
360.117	0.0219
360.486	0.0215
360.854	0.0193
361.222	0.0182
361.591	0.0168
361.959	0.0169
362.327	0.018
362.695	0.0188
363.064	0.0198
363.432	0.0206
363.8	0.02
364.168	0.0194
364.536	0.0192
364.904	0.0184
365.272	0.0181
365.64	0.0172
366.008	0.0197
366.376	0.0191
366.743	0.0191
367.111	0.0177
367.479	0.0165
367.847	0.017
368.214	0.0178
368.582	0.0191
368.949	0.0206
369.317	0.0172
369.684	0.016
370.052	0.0136
370.419	0.0168
370.787	0.0181
371.154	0.0185
371.521	0.0166
371.889	0.0167
372.256	0.0154
372.623	0.0148
372.99	0.0132
373.357	0.0144
373.724	0.016
374.091	0.0171
374.458	0.0156
374.825	0.0151
375.192	0.0153
375.559	0.0157
375.926	0.0149
376.293	0.0144
376.659	0.0148
377.026	0.0139
377.393	0.0147
377.759	0.0139
378.126	0.0161
378.492	0.0153
378.859	0.0162
379.225	0.0137
379.592	0.0136
379.958	0.0136
380.325	0.0146
380.691	0.0153
381.057	0.0137
381.423	0.0141
381.79	0.0127
382.156	0.0122
382.522	0.0122
382.888	0.0129
383.254	0.0147
383.62	0.0143
383.986	0.0131
384.352	0.0112
384.718	0.0113
385.084	0.0134
385.449	0.0141
385.815	0.0149
386.181	0.0146
386.547	0.0152
386.912	0.0131
387.278	0.0125
387.643	0.0109
388.009	0.0126
388.374	0.0105
388.74	0.0125
389.105	0.011
389.471	0.0119
389.836	0.0119
390.201	0.0135
390.566	0.0142
390.932	0.0132
391.297	0.0108
391.662	0.011
392.027	0.0121
392.392	0.0133
392.757	0.0108
393.122	0.0098
393.487	0.009
393.852	0.0111
394.217	0.0104
394.582	0.0108
394.946	0.0094
395.311	0.0096
395.676	0.0093
396.04	0.011
396.405	0.0108
396.77	0.0115
397.134	0.0091
397.499	0.0106
397.863	0.0114
398.227	0.0138
398.592	0.0113
398.956	0.0095
399.32	0.0077
399.685	0.0079
400.049	0.0088
400.413	0.01
400.777	0.0092
401.141	0.0092
401.505	0.0089
401.869	0.0097
402.233	0.0089
402.597	0.0063
402.961	0.0056
403.325	0.0076
403.689	0.0096
404.053	0.0108
404.416	0.008
404.78	0.0069
405.144	0.0075
405.507	0.0089
405.871	0.0075
406.234	0.007
406.598	0.0066
406.961	0.0078
407.325	0.0078
407.688	0.0067
408.051	0.0063
408.415	0.0078
408.778	0.0078
409.141	0.0083
409.504	0.0064
409.867	0.0066
410.23	0.0062
410.593	0.0067
410.956	0.0054
411.319	0.0068
411.682	0.0042
412.045	0.0057
412.408	0.0023
412.771	0.0058
413.134	0.0049
413.496	0.0059
413.859	0.0045
414.222	0.0073
414.584	0.011
414.947	0.0113
415.309	0.0077
415.672	0.0074
416.034	0.0073
416.396	0.0073
416.759	0.0051
417.121	0.0047
417.483	0.0051
417.846	0.0063
418.208	0.0068
418.57	0.0069
418.932	0.0046
419.294	0.0045
419.656	0.0054
420.018	0.0057
420.38	0.0063
420.742	0.0055
421.104	0.0067
421.466	0.0061
421.827	0.0048
422.189	0.0034
422.551	0.0035
422.912	0.0057
423.274	0.0079
423.636	0.0088
423.997	0.0081
424.359	0.0074
424.72	0.0076
425.081	0.0081
425.443	0.0072
425.804	0.0056
426.165	0.0062
426.527	0.0065
426.888	0.0069
427.249	0.0077
427.61	0.0063
427.971	0.0052
428.332	0.0028
428.693	0.0058
429.054	0.0054
429.415	0.0077
429.776	0.0032
430.137	0.0035
430.498	0.0029
430.858	0.0078
431.219	0.0078
431.58	0.0086
431.94	0.0076
432.301	0.0057
432.661	0.0022
433.022	0.0017
433.382	0.0036
433.743	0.0063
434.103	0.0061
434.463	0.0068
434.824	0.0049
435.184	0.0059
435.544	0.0046
435.904	0.0078
436.264	0.0076
436.624	0.0092
436.985	0.0059
437.345	0.0056
437.704	0.0054
438.064	0.0056
438.424	0.0036
438.784	0.0024
439.144	0.0008
439.504	0.0028
439.863	0.0015
440.223	0.0034
440.583	0.0027
440.942	0.004
441.302	0.0044
441.661	0.0036
442.021	0.0055
442.38	0.006
442.739	0.0052
443.099	0.0017
443.458	0.0026
443.817	0.0026
444.176	0.0053
444.536	0.0044
444.895	0.0061
445.254	0.0051
445.613	0.0058
445.972	0.0057
446.331	0.0045
446.69	0.0025
447.049	-0.0014
447.407	-0.0001
447.766	0.0018
448.125	0.0055
448.484	0.0065
448.842	0.0039
449.201	0.0044
449.559	0.0025
449.918	0.0035
450.276	0.0039
450.635	0.0045
450.993	0.0038
451.352	0.0021
451.71	0.0026
452.068	0.0024
452.426	0.0021
452.785	0.003
453.143	0.0035
453.501	0.0039
453.859	0.0015
454.217	0.0031
454.575	0.0021
454.933	0.0031
455.291	0.0034
455.649	0.0057
456.006	0.0052
456.364	0.0038
456.722	0.0033
457.079	0.0036
457.437	0.0031
457.795	0.0048
458.152	0.0059
458.51	0.0058
458.867	0.0038
459.225	0.0037
459.582	0.0046
459.939	0.001
460.297	0.0004
460.654	0.0031
461.011	0.0072
461.368	0.0073
461.725	0.0032
462.082	0.003
462.44	0.0027
462.797	0.0019
463.153	0.0001
463.51	-0.0014
463.867	-0.0003
464.224	0.0018
464.581	0.0014
464.938	0.0011
465.294	-0.0002
465.651	0.004
466.008	0.001
466.364	0.0011
466.721	-0.0019
467.077	0.0009
467.434	0.0011
467.79	0.0025
468.146	0.0021
468.503	0.002
468.859	0.0003
469.215	0.001
469.571	0.0005
469.927	0.0039
470.284	0.0052
470.64	0.0079
470.996	0.0067
471.352	0.0058
471.707	0.0035
472.063	0.0038
472.419	0.0059
472.775	0.0069
473.131	0.0054
473.486	0.0001
473.842	-0.0004
474.198	0.0008
474.553	0.005
474.909	0.0065
475.264	0.0045
475.62	0.0023
475.975	0.0014
476.331	0.0031
476.686	0.0056
477.041	0.0043
477.396	0.0032
477.752	0.0018
478.107	0.0014
478.462	0.0009
478.817	0.0013
479.172	0.0022
479.527	0.002
479.882	0.0017
480.237	0.0025
480.591	0.0034
480.946	0.0049
481.301	0.0051
481.656	0.0056
482.01	0.0028
482.365	0.0003
482.72	0.0001
483.074	0.0009
483.429	0.0016
483.783	0.0013
484.137	0.0012
484.492	0.0029
484.846	0.0034
485.2	0.0047
485.555	0.0039
485.909	0.0019
486.263	-0.001
486.617	-0.0008
486.971	-0.0012
487.325	-0.0006
487.679	-0.0004
488.033	0.0021
488.387	0.0037
488.741	0.0022
489.094	0.0002
489.448	-0.0013
489.802	0.0007
490.156	0.0002
490.509	0.0015
490.863	0.0009
491.216	0.0029
491.57	0.0014
491.923	0.0005
492.277	-0.0009
492.63	-0.0001
492.983	-0.0017
493.337	-0.0004
493.69	-0.0012
494.043	-0.0014
494.396	-0.0018
494.749	-0.0005
495.102	-0.0014
495.455	-0.0001
495.808	0.0012
496.161	0.0037
496.514	0.0017
496.867	-0.0002
497.22	-0
497.572	0.0003
497.925	0.0021
498.278	0.0019
498.63	0.0027
498.983	-0.0005
499.335	-0.0018
499.688	-0.0028
500.04	-0.0019
500.393	-0.002
500.745	-0.0022
501.097	-0.0029
501.449	-0.0004
501.802	-0.0007
502.154	0.0004
502.506	-0.0006
502.858	-0.0002
503.21	-0.0004
503.562	-0.0022
503.914	-0.0009
504.266	0.0004
504.618	-0.0002
504.969	0.0003
505.321	-0.0008
505.673	0.0015
506.025	-0.0005
506.376	-0.0022
506.728	-0.0017
507.079	-0.001
507.431	0.0003
507.782	-0.001
508.134	0.001
508.485	0.001
508.836	0.0016
509.188	-0.0017
509.539	-0.0022
509.89	-0.0006
510.241	0
510.592	-0.0017
510.943	-0.0031
511.294	-0.0011
511.645	0.0007
511.996	0.0014
512.347	-0.0007
512.698	-0.0003
513.049	-0.0013
513.399	0.0002
513.75	0.0009
514.101	0.0018
514.451	0.0014
514.802	-0.0007
515.152	-0.0013
515.503	-0.0006
515.853	0.0008
516.203	-0.0004
516.554	-0.0019
516.904	-0.001
517.254	0.0003
517.604	0
517.955	-0.0025
518.305	-0.0052
518.655	-0.0055
519.005	-0.0042
519.355	-0.0028
519.705	-0.004
520.055	-0.0041
520.404	-0.0053
520.754	-0.0047
521.104	-0.0056
521.454	-0.0049
521.803	-0.0026
522.153	-0.0022
522.502	-0.0006
522.852	-0.0017
523.201	-0.0024
523.551	-0.0022
523.9	-0.0026
524.249	-0.0001
524.599	-0.0013
524.948	-0.0014
525.297	-0.0025
525.646	-0.0036
525.995	-0.0036
526.344	-0.0021
526.694	-0.0003
527.042	0.0003
527.391	-0.0043
527.74	-0.0049
528.089	-0.0038
528.438	-0.0006
528.787	-0.0025
529.135	-0.0046
529.484	-0.0044
529.833	-0.0014
530.181	-0.0034
530.53	-0.005
530.878	-0.0071
531.227	-0.0041
531.575	-0.0037
531.923	-0.005
532.271	-0.006
532.62	-0.0033
532.968	-0.0034
533.316	-0.0046
533.664	-0.0053
534.012	-0.002
534.36	0
534.708	-0.0021
535.056	-0.0057
535.404	-0.0052
535.752	-0.0015
536.1	-0.0007
536.447	-0.0014
536.795	-0.0037
537.143	-0.0034
537.49	-0.0029
537.838	-0.0029
538.185	-0.0018
538.533	-0.0016
538.88	-0.0033
539.228	-0.003
539.575	-0.0053
539.922	-0.0047
540.269	-0.0059
540.617	-0.0036
540.964	-0.0057
541.311	-0.0055
541.658	-0.0072
542.005	-0.0057
542.352	-0.0036
542.699	-0.0033
543.045	-0.0041
543.392	-0.0054
543.739	-0.0045
544.086	-0.0068
544.432	-0.0076
544.779	-0.0095
545.126	-0.0058
545.472	-0.0057
545.819	-0.0043
546.165	-0.0056
546.512	-0.0059
546.858	-0.0074
547.204	-0.0086
547.55	-0.0085
547.897	-0.007
548.243	-0.0054
548.589	-0.005
548.935	-0.0048
549.281	-0.005
549.627	-0.0044
549.973	-0.0042
550.319	-0.0045
550.665	-0.006
551.01	-0.0052
551.356	-0.0035
551.702	-0.0007
552.048	-0.0004
552.393	-0.0013
552.739	-0.0056
553.084	-0.0076
553.43	-0.0061
553.775	-0.0039
554.12	-0.0018
554.466	-0.0034
554.811	-0.0057
555.156	-0.01
555.502	-0.0114
555.847	-0.0078
556.192	-0.0055
556.537	-0.004
556.882	-0.0074
557.227	-0.0069
557.572	-0.0079
557.917	-0.0064
558.261	-0.0048
558.606	-0.0011
558.951	-0.0012
559.295	-0.0014
559.64	-0.0039
559.985	-0.0033
560.329	-0.0027
560.674	-0.0019
561.018	-0.0012
561.363	-0.0053
561.707	-0.0078
562.051	-0.0087
562.395	-0.0092
562.74	-0.0054
563.084	-0.0065
563.428	-0.004
563.772	-0.0073
564.116	-0.0075
564.46	-0.0074
564.804	-0.0062
565.148	-0.0055
565.492	-0.0054
565.835	-0.0075
566.179	-0.006
566.523	-0.0068
566.866	-0.0042
567.21	-0.0063
567.554	-0.0041
567.897	-0.005
568.24	-0.0027
568.584	-0.0041
568.927	-0.0051
569.271	-0.0068
569.614	-0.0092
569.957	-0.0094
570.3	-0.0099
570.643	-0.0081
570.986	-0.0079
571.329	-0.0046
571.672	-0.0017
572.015	-0.001
572.358	-0.0012
572.701	-0.0045
573.044	-0.0052
573.387	-0.0064
573.729	-0.007
574.072	-0.0075
574.414	-0.0097
574.757	-0.0077
575.099	-0.0051
575.442	-0.0038
575.784	-0.0045
576.127	-0.0067
576.469	-0.0072
576.811	-0.006
577.153	-0.0072
577.496	-0.0076
577.838	-0.007
578.18	-0.0057
578.522	-0.0056
578.864	-0.0095
579.206	-0.0098
579.548	-0.0111
579.889	-0.0102
580.231	-0.0089
580.573	-0.0074
580.915	-0.0088
581.256	-0.0105
581.598	-0.0093
581.939	-0.0082
582.281	-0.007
582.622	-0.0056
582.964	-0.003
583.305	-0.0023
583.646	-0.0032
583.988	-0.0074
584.329	-0.01
584.67	-0.0108
585.011	-0.0106
585.352	-0.0098
585.693	-0.011
586.034	-0.0093
586.375	-0.0088
586.716	-0.0073
587.057	-0.0059
587.398	-0.0081
587.738	-0.0085
588.079	-0.009
588.42	-0.0075
588.76	-0.007
589.101	-0.0058
589.441	-0.0035
589.782	-0.0037
590.122	-0.0067
590.463	-0.009
590.803	-0.0089
591.143	-0.0066
591.483	-0.0062
591.823	-0.0056
592.164	-0.0085
592.504	-0.0111
592.844	-0.0118
593.184	-0.0095
593.523	-0.0079
593.863	-0.0061
594.203	-0.0079
594.543	-0.0091
594.883	-0.0087
595.222	-0.0062
595.562	-0.0063
595.901	-0.0079
596.241	-0.0107
596.58	-0.009
596.92	-0.0084
597.259	-0.0052
597.599	-0.0047
597.938	-0.0073
598.277	-0.0067
598.616	-0.0054
598.955	-0.0021
599.295	-0.0051
599.634	-0.0073
599.973	-0.0085
600.312	-0.0086
600.65	-0.007
600.989	-0.006
601.328	-0.0037
601.667	-0.0067
602.005	-0.007
602.344	-0.0086
602.683	-0.0088
603.021	-0.0097
603.36	-0.0098
603.698	-0.0082
604.037	-0.0076
604.375	-0.0053
604.713	-0.0063
605.052	-0.0075
605.39	-0.0104
605.728	-0.0102
606.066	-0.0113
606.404	-0.0148
606.742	-0.0147
607.08	-0.0144
607.418	-0.0093
607.756	-0.0083
608.094	-0.0093
608.431	-0.0096
608.769	-0.01
609.107	-0.0084
609.444	-0.01
609.782	-0.0102
610.12	-0.0093
610.457	-0.0072
610.794	-0.0073
611.132	-0.0069
611.469	-0.0111
611.806	-0.0106
612.144	-0.0098
612.481	-0.0069
612.818	-0.006
613.155	-0.0083
613.492	-0.006
613.829	-0.0052
614.166	-0.0046
614.503	-0.0041
614.84	-0.0068
615.176	-0.0084
615.513	-0.0119
615.85	-0.0114
616.187	-0.0083
616.523	-0.0073
616.86	-0.0112
617.196	-0.0132
617.533	-0.0123
617.869	-0.0072
618.205	-0.0068
618.542	-0.0076
618.878	-0.0082
619.214	-0.0089
619.55	-0.0092
619.886	-0.0083
620.222	-0.0096
620.558	-0.0075
620.894	-0.0059
621.23	-0.0038
621.566	-0.0074
621.902	-0.0108
622.238	-0.0111
622.573	-0.0064
622.909	-0.0089
623.244	-0.0085
623.58	-0.0134
623.916	-0.0145
624.251	-0.015
624.586	-0.0125
624.922	-0.0095
625.257	-0.0079
625.592	-0.0061
625.927	-0.004
626.263	-0.006
626.598	-0.0075
626.933	-0.0092
627.268	-0.0098
627.603	-0.0105
627.938	-0.0102
628.272	-0.0101
628.607	-0.0118
628.942	-0.013
629.277	-0.0101
629.611	-0.0086
629.946	-0.0069
630.281	-0.0099
630.615	-0.01
630.949	-0.0111
631.284	-0.0104
631.618	-0.0083
631.953	-0.0078
632.287	-0.0074
632.621	-0.0076
632.955	-0.0065
633.289	-0.0074
633.623	-0.0053
633.957	-0.0051
634.291	-0.006
634.625	-0.0088
634.959	-0.0123
635.293	-0.0132
635.627	-0.0159
635.96	-0.0142
636.294	-0.0132
636.627	-0.0116
636.961	-0.0137
637.294	-0.0163
637.628	-0.0165
637.961	-0.0126
638.295	-0.0089
638.628	-0.0105
638.961	-0.0144
639.294	-0.0115
639.628	-0.0068
639.961	-0.0042
640.294	-0.0056
640.627	-0.0092
640.96	-0.0108
641.293	-0.0125
641.625	-0.0138
641.958	-0.0081
642.291	-0.0031
642.624	0.0004
642.956	-0.0058
643.289	-0.0096
643.621	-0.0142
643.954	-0.0155
644.286	-0.0221
644.619	-0.0176
644.951	-0.0149
645.283	-0.0062
645.616	-0.0077
645.948	-0.0075
646.28	-0.0129
646.612	-0.0099
646.944	-0.0086
647.276	-0.004
647.608	-0.0076
647.94	-0.003
648.272	-0.0022
648.603	-0.0017
648.935	-0.0082
649.267	-0.0149
649.598	-0.0134
649.93	-0.0154
650.261	-0.0109
650.593	-0.0099
650.924	-0.0054
651.256	-0.0051
651.587	-0.0083
651.918	-0.0094
652.25	-0.0105
652.581	-0.0092
652.912	-0.0106
653.243	-0.0082
653.574	-0.0071
653.905	-0.0067
654.236	-0.009
654.567	-0.0109
654.897	-0.0101
655.228	-0.0089
655.559	-0.0077
655.89	-0.0072
656.22	-0.0092
656.551	-0.0104
656.881	-0.0104
657.212	-0.0131
657.542	-0.0088
657.872	-0.0131
658.203	-0.008
658.533	-0.0173
658.863	-0.0157
659.193	-0.0136
659.523	-0.0123
659.853	-0.0106
660.183	-0.016
660.513	-0.0158
660.843	-0.0134
661.173	-0.0081
661.503	-0.0079
661.833	-0.0046
662.162	-0.0079
662.492	-0.0053
662.822	-0.0106
663.151	-0.0132
663.481	-0.0149
663.81	-0.0205
664.139	-0.0165
664.469	-0.017
664.798	-0.0139
665.127	-0.0143
665.456	-0.0113
665.785	-0.0034
666.114	-0.0073
666.443	-0.0089
666.772	-0.015
667.101	-0.0137
667.43	-0.0158
667.759	-0.0148
668.088	-0.0116
668.416	-0.0111
668.745	-0.0099
669.074	-0.0168
669.402	-0.0177
669.731	-0.0154
670.059	-0.011
670.388	-0.0082
670.716	-0.0119
671.044	-0.0066
671.372	-0.0063
671.701	-0.0047
672.029	-0.006
672.357	-0.0072
672.685	-0.0103
673.013	-0.0162
673.341	-0.0126
673.669	-0.0119
673.996	-0.0091
674.324	-0.0173
674.652	-0.013
674.98	-0.0114
675.307	-0.0075
675.635	-0.0118
675.962	-0.0121
676.29	-0.0135
676.617	-0.0096
676.945	-0.0119
677.272	-0.0089
677.599	-0.009
677.926	-0.0062
678.253	-0.005
678.581	-0.0064
678.908	-0.0111
679.235	-0.0143
679.561	-0.0122
679.888	-0.0079
680.215	-0.0067
680.542	-0.0081
680.869	-0.0076
681.195	-0.0064
681.522	-0.0045
681.849	-0.0086
682.175	-0.0122
682.502	-0.0116
682.828	-0.0094
683.154	-0.0092
683.481	-0.0113
683.807	-0.0112
684.133	-0.0121
684.459	-0.0129
684.785	-0.0126
685.111	-0.0127
685.437	-0.013
685.763	-0.0141
686.089	-0.0145
686.415	-0.0178
686.741	-0.0153
687.067	-0.0099
687.392	-0.0089
687.718	-0.0108
688.043	-0.014
688.369	-0.0142
688.694	-0.0109
689.02	-0.0108
689.345	-0.0052
689.67	-0.0094
689.996	-0.0096
690.321	-0.0123
690.646	-0.011
690.971	-0.0132
691.296	-0.0139
691.621	-0.0166
691.946	-0.0113
692.271	-0.0111
692.596	-0.0057
692.921	-0.0051
693.245	-0.0013
693.57	-0.0039
693.895	-0.0063
694.219	-0.0099
694.544	-0.0102
694.868	-0.0124
695.193	-0.0145
695.517	-0.0145
695.841	-0.0151
696.166	-0.0147
696.49	-0.0153
696.814	-0.0126
697.138	-0.0133
697.462	-0.0154
697.786	-0.0144
698.11	-0.0134
698.434	-0.0115
698.758	-0.0129
699.081	-0.0153
699.405	-0.015
699.729	-0.0173
700.052	-0.0176
700.376	-0.0163
700.7	-0.0143
701.023	-0.0112
701.346	-0.014
701.67	-0.0131
701.993	-0.0142
702.316	-0.0128
702.639	-0.0148
702.963	-0.0207
703.286	-0.0224
703.609	-0.0243
703.932	-0.0204
704.255	-0.0157
704.578	-0.0108
704.9	-0.0081
705.223	-0.008
705.546	-0.01
705.868	-0.0104
706.191	-0.0144
706.514	-0.0154
706.836	-0.0118
707.159	-0.0101
707.481	-0.0076
707.803	-0.0141
708.126	-0.0163
708.448	-0.022
708.77	-0.0162
709.092	-0.0126
709.414	-0.0098
709.736	-0.0121
710.058	-0.0172
710.38	-0.0173
710.702	-0.0143
711.024	-0.0103
711.345	-0.0103
711.667	-0.0136
711.989	-0.0161
712.31	-0.0132
712.632	-0.0126
712.953	-0.0073
713.275	-0.0098
713.596	-0.0076
713.917	-0.01
714.239	-0.0107
714.56	-0.0152
714.881	-0.0144
715.202	-0.0149
715.523	-0.0153
715.844	-0.0153
716.165	-0.0168
716.486	-0.0153
716.807	-0.0177
717.128	-0.0156
717.448	-0.0139
717.769	-0.0145
718.09	-0.0133
718.41	-0.0141
718.731	-0.0106
719.051	-0.0097
719.372	-0.0093
719.692	-0.0136
720.012	-0.0159
720.332	-0.015
720.653	-0.0133
720.973	-0.0138
721.293	-0.0168
721.613	-0.0137
721.933	-0.0081
722.253	-0.0025
722.573	-0.0033
722.892	-0.0086
723.212	-0.0152
723.532	-0.0185
723.851	-0.0167
724.171	-0.0115
724.491	-0.0133
724.81	-0.0119
725.129	-0.0116
725.449	-0.005
725.768	-0.0116
726.087	-0.0167
726.407	-0.018
726.726	-0.0119
727.045	-0.0081
727.364	-0.0096
727.683	-0.0093
728.002	-0.0116
728.321	-0.0115
728.64	-0.0121
728.958	-0.0103
729.277	-0.0154
729.596	-0.017
729.914	-0.0184
730.233	-0.0124
730.551	-0.0121
730.87	-0.0119
731.188	-0.0098
731.507	-0.0095
731.825	-0.007
732.143	-0.0096
732.461	-0.0092
732.779	-0.008
733.097	-0.0136
733.415	-0.0155
733.733	-0.0203
734.051	-0.0149
734.369	-0.0113
734.687	-0.013
735.005	-0.0119
735.322	-0.0122
735.64	-0.0104
735.957	-0.0095
736.275	-0.0099
736.592	-0.0068
736.91	-0.0096
737.227	-0.0113
737.544	-0.0144
737.862	-0.0116
738.179	-0.0102
738.496	-0.0065
738.813	-0.013
739.13	-0.0159
739.447	-0.0177
739.764	-0.0192
740.081	-0.0183
740.398	-0.018
740.714	-0.0095
741.031	-0.0067
741.348	-0.0054
741.664	-0.0104
741.981	-0.0123
742.297	-0.0119
742.614	-0.0103
742.93	-0.0089
743.246	-0.0084
743.563	-0.0097
743.879	-0.0166
744.195	-0.0165
744.511	-0.0229
744.827	-0.0188
745.143	-0.0253
745.459	-0.0204
745.775	-0.0159
746.091	-0.0121
746.406	-0.0086
746.722	-0.0112
747.038	-0.0107
747.353	-0.0107
747.669	-0.0141
747.984	-0.0184
748.3	-0.0191
748.615	-0.0232
748.93	-0.0191
749.246	-0.0173
749.561	-0.0132
749.876	-0.012
750.191	-0.0186
750.506	-0.0205
750.821	-0.0177
751.136	-0.0168
751.451	-0.0088
751.766	-0.0132
752.08	-0.0114
752.395	-0.0176
752.71	-0.0168
753.024	-0.0171
753.339	-0.0084
753.653	-0.0098
753.968	-0.0117
754.282	-0.0184
754.596	-0.0126
754.911	-0.0102
755.225	-0.0089
755.539	-0.0165
755.853	-0.0169
756.167	-0.0189
756.481	-0.0173
756.795	-0.0167
757.109	-0.0104
757.423	-0.0113
757.736	-0.0086
758.05	-0.0167
758.364	-0.0129
758.677	-0.0158
758.991	-0.0115
759.304	-0.0122
759.618	-0.0101
759.931	-0.0122
760.244	-0.0124
760.558	-0.0128
760.871	-0.014
761.184	-0.0125
761.497	-0.0105
761.81	-0.0115
762.123	-0.0161
762.436	-0.0185
762.749	-0.014
763.062	-0.0113
763.374	-0.0135
763.687	-0.0133
764	-0.0136
764.312	-0.0086
764.625	-0.0088
764.937	-0.0118
765.25	-0.0122
765.562	-0.0129
765.874	-0.0113
766.186	-0.0175
766.499	-0.0192
766.811	-0.019
767.123	-0.0186
767.435	-0.0173
767.747	-0.0146
768.059	-0.0122
768.37	-0.0131
768.682	-0.0132
768.994	-0.0205
769.306	-0.0201
769.617	-0.021
769.929	-0.0075
770.24	-0.0041
770.552	-0.0096
770.863	-0.0188
771.174	-0.0183
771.486	-0.0146
771.797	-0.0143
772.108	-0.0182
772.419	-0.0178
772.73	-0.0145
773.041	-0.0114
773.352	-0.0128
773.663	-0.0175
773.974	-0.0154
774.285	-0.0186
774.595	-0.0161
774.906	-0.0177
775.217	-0.0121
775.527	-0.0108
775.838	-0.013
776.148	-0.0163
776.458	-0.0133
776.769	-0.0127
777.079	-0.0101
777.389	-0.0141
777.699	-0.0143
778.009	-0.0164
778.319	-0.0177
778.629	-0.0188
778.939	-0.0181
779.249	-0.0116
779.559	-0.009
779.869	-0.0082
780.178	-0.0137
780.488	-0.0169
780.798	-0.0187
781.107	-0.0135
781.417	-0.0172
781.726	-0.019
782.035	-0.0251
782.345	-0.0171
782.654	-0.017
782.963	-0.0129
783.272	-0.0165
783.581	-0.0159
783.89	-0.0175
784.199	-0.0189
784.508	-0.0201
784.817	-0.0242
785.126	-0.0269
785.434	-0.0228
785.743	-0.0156
786.052	-0.0114
786.36	-0.0158
786.669	-0.0151
786.977	-0.0149
787.285	-0.0095
787.594	-0.0136
787.902	-0.0113
788.21	-0.0145
788.518	-0.0109
788.826	-0.0094
789.135	-0.0098
789.442	-0.0143
789.75	-0.016
790.058	-0.018
790.366	-0.0212
790.674	-0.0256
790.981	-0.0224
791.289	-0.0172
791.597	-0.0197
791.904	-0.0187
792.212	-0.0204
792.519	-0.0164
792.826	-0.0162
793.134	-0.0158
793.441	-0.0137
793.748	-0.0123
794.055	-0.0084
794.362	-0.0097
794.669	-0.0147
794.976	-0.022
795.283	-0.0215
795.59	-0.0148
795.897	-0.0105
796.203	-0.0121
796.51	-0.0235
796.817	-0.0246
797.123	-0.0218
797.43	-0.015
797.736	-0.0168
798.042	-0.0226
798.349	-0.0231
798.655	-0.0191
798.961	-0.0175
799.267	-0.0163
799.573	-0.0132
799.879	-0.0134
800.185	-0.0147
800.491	-0.0144
800.797	-0.0109
801.103	-0.0111
801.408	-0.0155
801.714	-0.0115
802.02	-0.0096
802.325	-0.0095
802.631	-0.0204
802.936	-0.0253
803.242	-0.0256
803.547	-0.0204
803.852	-0.0211
804.157	-0.0218
804.462	-0.0212
804.768	-0.0177
805.073	-0.0123
805.378	-0.0093
805.682	-0.0109
805.987	-0.0158
806.292	-0.0159
806.597	-0.0087
806.902	-0.0102
807.206	-0.0188
807.511	-0.0267
807.815	-0.0276
808.12	-0.0233
808.424	-0.0193
808.728	-0.0144
809.033	-0.0113
809.337	-0.0154
809.641	-0.0188
809.945	-0.0234
810.249	-0.0254
810.553	-0.0193
810.857	-0.0155
811.161	-0.0126
811.465	-0.0179
811.768	-0.0191
812.072	-0.0249
812.376	-0.0207
812.679	-0.025
812.983	-0.0162
813.286	-0.0228
813.59	-0.0167
813.893	-0.0147
814.196	-0.0121
814.499	-0.0113
814.803	-0.0199
815.106	-0.0238
815.409	-0.0251
815.712	-0.0245
816.015	-0.0251
816.318	-0.0276
816.62	-0.0276
816.923	-0.0228
817.226	-0.025
817.528	-0.0136
817.831	-0.0197
818.133	-0.0165
818.436	-0.0233
818.738	-0.0151
819.041	-0.0114
819.343	-0.0097
819.645	-0.0193
819.947	-0.02
820.249	-0.0252
820.551	-0.0182
820.853	-0.0186
821.155	-0.0176
821.457	-0.0145
821.759	-0.0243
822.061	-0.0208
822.362	-0.0269
822.664	-0.0211
822.966	-0.0167
823.267	-0.0136
823.569	-0.0162
823.87	-0.0265
824.171	-0.0257
824.473	-0.0256
824.774	-0.0256
825.075	-0.0294
825.376	-0.0218
825.677	-0.0208
825.978	-0.0155
826.279	-0.0252
826.58	-0.0164
826.881	-0.0233
827.181	-0.0108
827.482	-0.0122
827.783	-0.0113
828.083	-0.0256
828.384	-0.0398
828.684	-0.0403
828.985	-0.0323
829.285	-0.0226
829.585	-0.0205
829.885	-0.018
830.185	-0.0219
830.486	-0.0185
830.786	-0.0108
831.086	-0.0056
831.385	-0.0065
831.685	-0.0197
831.985	-0.0296
832.285	-0.0309
832.585	-0.0243
832.884	-0.0148
833.184	-0.017
833.483	-0.0336
833.783	-0.0352
834.082	-0.0335
834.381	-0.0177
834.681	-0.0179
834.98	-0.0152
835.279	-0.0226
835.578	-0.0291
835.877	-0.0295
836.176	-0.0243
836.475	-0.0128
836.774	-0.0158
837.072	-0.0132
837.371	-0.0178
837.67	-0.014
837.968	-0.0197
838.267	-0.0222
838.565	-0.0298
838.864	-0.0236
839.162	-0.0257
839.46	-0.0307
839.759	-0.0348
840.057	-0.0389
840.355	-0.0324
840.653	-0.0356
840.951	-0.0259
841.249	-0.0182
841.547	-0.0106
841.845	-0.0084
842.142	-0.0028
842.44	-0.0142
842.738	-0.026
843.035	-0.0398
843.333	-0.031
843.63	-0.0231
843.928	-0.0184
844.225	-0.0122
844.522	-0.0043
844.82	-0.0072
845.117	-0.0052
845.414	-0.0171
845.711	-0.0078
846.008	-0.0197
846.305	-0.0207
846.602	-0.0345
846.898	-0.0311
847.195	-0.0387
847.492	-0.035
847.788	-0.0346
848.085	-0.0294
848.382	-0.0189
848.678	-0.0279
848.974	-0.0304
849.271	-0.0297
849.567	-0.0285
849.863	-0.0177
850.159	-0.0363
850.455	-0.0187
850.751	-0.0227
851.047	-0.0088
851.343	-0.029
851.639	-0.0264
851.935	-0.0266
852.23	-0.0286
852.526	-0.0304
852.822	-0.0387
853.117	-0.0268
853.413	-0.0218
853.708	-0.0308
854.003	-0.0096
854.299	-0.0126
854.594	-0.0026
854.889	-0.0401
855.184	-0.0446
855.479	-0.0279
855.774	0.0037
856.069	-0.0012
856.364	-0.0129
856.659	-0.0258
856.954	-0.0019
857.248	0.0009
857.543	0.0001
857.837	-0.0173
858.132	-0.0156
858.426	-0.0288
858.721	-0.0344
859.015	-0.0489
859.309	-0.0403
859.604	-0.0393
859.898	-0.0235
860.192	-0.0203
860.486	-0.0161
860.78	-0.0311
861.074	-0.0329
861.367	-0.0211
861.661	-0.0094
861.955	-0.0078
862.248	-0.0086
862.542	-0.0207
862.836	-0.015
863.129	-0.0424
863.422	-0.0235
863.716	-0.0229
864.009	0.0051
864.302	-0.012
864.595	-0.0306
864.889	-0.0521
865.182	-0.0453
865.475	-0.0446
865.767	-0.0416
866.06	-0.0458
866.353	-0.0363
866.646	-0.0317
866.938	-0.0341
867.231	-0.0467
867.524	-0.0314
867.816	-0.0088
868.109	0.0139
868.401	0.0091
868.693	-0.0086
868.985	-0.0296
869.278	-0.031
869.57	-0.0379
869.862	-0.0409
870.154	-0.0495
870.446	-0.0508
870.738	-0.0546
871.029	-0.0811
871.321	-0.0648
871.613	-0.031
871.904	-0.0019
872.196	-0.0104
872.487	-0.0207
872.779	-0.0234
873.07	-0.028
873.362	-0.0249
873.653	0.0028
873.944	0.0085
874.235	-0.0127
874.526	-0.0372
874.817	-0.0356
875.108	-0.0214
875.399	-0.0285
875.69	-0.0263
875.981	-0.0353
876.271	-0.0411
876.562	-0.0423
876.853	-0.0562
877.143	-0.0571
877.434	-0.0498
877.724	-0.0412
878.014	-0.0206
878.305	-0.0528
878.595	-0.0341
878.885	-0.0433
879.175	-0.014
879.465	-0.0347
879.755	-0.0465
880.045	-0.04
880.335	-0.019
880.624	0.0077
880.914	0.0077
