Data from 1SS02BU-2_080317_1a_Absorbance_15-39-52-626.txt Node
Date: Sun Aug 06 15:39:52 MDT 2017
User: Tank Lab
Spectrometer: FLMS01220
Trigger mode: 0
Integration Time (sec): 1.000000E-1
Scans to average: 10
Electric dark correction enabled: true
Nonlinearity correction enabled: false
Boxcar width: 1
XAxis mode: Wavelengths
Number of Pixels in Spectrum: 2048
>>>>>Begin Spectral Data<<<<<
179.47	0.4342
179.856	0.4342
180.241	0.2571
180.626	0.2798
181.011	0.3157
181.396	0.096
181.781	-0.7232
182.166	-0.1062
182.551	-0.028
182.936	-0
183.321	-0
183.706	-0.7325
184.091	-0
184.476	-0
184.86	-0.0424
185.245	-0.3304
185.63	-0.0822
186.015	0.0914
186.399	-0.0663
186.784	-0.2216
187.169	0.2635
187.553	0.2472
187.938	-0
188.322	0.0426
188.707	0.0525
189.091	0.0666
189.475	0.0333
189.86	0.0537
190.244	0.0802
190.629	0.1279
191.013	0.1474
191.397	0.1739
191.781	0.1854
192.165	0.2001
192.55	0.1974
192.934	0.2129
193.318	0.2236
193.702	0.2309
194.086	0.2177
194.47	0.2082
194.854	0.2005
195.238	0.2051
195.622	0.2117
196.006	0.2222
196.389	0.2239
196.773	0.2239
197.157	0.2166
197.541	0.2165
197.924	0.2149
198.308	0.2157
198.692	0.2136
199.075	0.2077
199.459	0.2063
199.843	0.2046
200.226	0.2025
200.61	0.1962
200.993	0.1889
201.376	0.1873
201.76	0.1878
202.143	0.1913
202.527	0.1944
202.91	0.1912
203.293	0.1894
203.676	0.1897
204.059	0.1922
204.443	0.1872
204.826	0.1839
205.209	0.1879
205.592	0.1892
205.975	0.1891
206.358	0.1811
206.741	0.1797
207.124	0.1747
207.507	0.1776
207.89	0.1773
208.273	0.1791
208.655	0.1769
209.038	0.1749
209.421	0.1743
209.804	0.1719
210.186	0.1757
210.569	0.1731
210.951	0.1743
211.334	0.1714
211.717	0.1715
212.099	0.1694
212.482	0.1681
212.864	0.1695
213.246	0.1695
213.629	0.1693
214.011	0.1675
214.393	0.1682
214.776	0.1687
215.158	0.1674
215.54	0.1649
215.922	0.1664
216.305	0.1657
216.687	0.1652
217.069	0.1626
217.451	0.1608
217.833	0.1586
218.215	0.1568
218.597	0.1554
218.979	0.1572
219.361	0.154
219.742	0.155
220.124	0.1534
220.506	0.1563
220.888	0.1563
221.27	0.1554
221.651	0.1534
222.033	0.1506
222.415	0.1492
222.796	0.1475
223.178	0.1488
223.559	0.1491
223.941	0.149
224.322	0.1481
224.704	0.1468
225.085	0.1476
225.466	0.1457
225.848	0.1439
226.229	0.1426
226.61	0.1421
226.992	0.1424
227.373	0.1416
227.754	0.1417
228.135	0.1426
228.516	0.1425
228.897	0.1422
229.278	0.1389
229.659	0.1404
230.04	0.1416
230.421	0.1424
230.802	0.1386
231.183	0.1356
231.564	0.1364
231.944	0.1363
232.325	0.1362
232.706	0.1324
233.087	0.1315
233.467	0.13
233.848	0.1318
234.229	0.13
234.609	0.1307
234.99	0.1299
235.37	0.1312
235.751	0.1309
236.131	0.1301
236.511	0.1295
236.892	0.1274
237.272	0.1278
237.652	0.1267
238.033	0.1267
238.413	0.1252
238.793	0.1257
239.173	0.124
239.553	0.1228
239.933	0.1217
240.313	0.122
240.694	0.122
241.074	0.1226
241.453	0.1226
241.833	0.1203
242.213	0.1173
242.593	0.117
242.973	0.118
243.353	0.1186
243.732	0.118
244.112	0.1166
244.492	0.1162
244.872	0.1151
245.251	0.1156
245.631	0.1145
246.01	0.1139
246.39	0.1136
246.769	0.1135
247.149	0.1135
247.528	0.1126
247.908	0.112
248.287	0.1116
248.666	0.1113
249.045	0.111
249.425	0.111
249.804	0.1106
250.183	0.11
250.562	0.109
250.941	0.1085
251.32	0.1078
251.699	0.1081
252.078	0.1082
252.457	0.1076
252.836	0.1063
253.215	0.1058
253.594	0.1066
253.973	0.1072
254.352	0.1061
254.731	0.1047
255.109	0.103
255.488	0.1033
255.867	0.1047
256.245	0.1051
256.624	0.1055
257.002	0.106
257.381	0.1065
257.759	0.1059
258.138	0.1041
258.516	0.1027
258.895	0.1018
259.273	0.1019
259.651	0.1031
260.03	0.1033
260.408	0.1032
260.786	0.1018
261.164	0.1009
261.542	0.0993
261.921	0.0986
262.299	0.0983
262.677	0.0995
263.055	0.0984
263.433	0.0976
263.811	0.0974
264.188	0.0992
264.566	0.0994
264.944	0.0976
265.322	0.0954
265.7	0.0944
266.077	0.0963
266.455	0.0974
266.833	0.0985
267.21	0.0972
267.588	0.096
267.966	0.0946
268.343	0.0926
268.721	0.0917
269.098	0.0907
269.475	0.0919
269.853	0.0923
270.23	0.0923
270.607	0.0902
270.985	0.0889
271.362	0.0883
271.739	0.0878
272.116	0.0879
272.494	0.0872
272.871	0.0868
273.248	0.086
273.625	0.086
274.002	0.0862
274.379	0.0861
274.756	0.0847
275.132	0.0844
275.509	0.0852
275.886	0.0861
276.263	0.0865
276.64	0.0844
277.016	0.0842
277.393	0.0829
277.77	0.0817
278.146	0.0804
278.523	0.079
278.899	0.0786
279.276	0.0786
279.652	0.0798
280.029	0.0797
280.405	0.0786
280.782	0.0763
281.158	0.0765
281.534	0.0761
281.91	0.0766
282.287	0.0754
282.663	0.0757
283.039	0.0759
283.415	0.0776
283.791	0.0785
284.167	0.0778
284.543	0.076
284.919	0.0734
285.295	0.0728
285.671	0.0728
286.047	0.0737
286.423	0.0736
286.799	0.073
287.174	0.073
287.55	0.0717
287.926	0.0712
288.301	0.0702
288.677	0.0704
289.053	0.0703
289.428	0.0691
289.804	0.0695
290.179	0.069
290.555	0.0699
290.93	0.0704
291.305	0.0699
291.681	0.0692
292.056	0.0679
292.431	0.0687
292.806	0.0677
293.182	0.0663
293.557	0.0646
293.932	0.0642
294.307	0.0659
294.682	0.065
295.057	0.0642
295.432	0.0624
295.807	0.0627
296.182	0.063
296.557	0.0635
296.932	0.0641
297.306	0.0651
297.681	0.0644
298.056	0.0633
298.43	0.0612
298.805	0.0605
299.18	0.062
299.554	0.0628
299.929	0.0622
300.303	0.0604
300.678	0.0594
301.052	0.061
301.427	0.0618
301.801	0.0622
302.175	0.06
302.55	0.0591
302.924	0.0585
303.298	0.0583
303.672	0.058
304.046	0.057
304.421	0.0562
304.795	0.0557
305.169	0.0561
305.543	0.0576
305.917	0.0573
306.291	0.0575
306.664	0.0564
307.038	0.0547
307.412	0.0543
307.786	0.0552
308.16	0.0559
308.533	0.0551
308.907	0.0538
309.281	0.0547
309.654	0.0536
310.028	0.0528
310.401	0.0519
310.775	0.0541
311.148	0.0533
311.522	0.0528
311.895	0.0503
312.268	0.0514
312.642	0.0511
313.015	0.0522
313.388	0.0523
313.761	0.0512
314.135	0.0493
314.508	0.0487
314.881	0.0492
315.254	0.0485
315.627	0.0485
316	0.0486
316.373	0.0489
316.746	0.0484
317.118	0.0481
317.491	0.0475
317.864	0.0466
318.237	0.0459
318.61	0.0467
318.982	0.047
319.355	0.0474
319.727	0.0466
320.1	0.0462
320.473	0.0446
320.845	0.0452
321.218	0.0455
321.59	0.0462
321.962	0.0457
322.335	0.0461
322.707	0.0466
323.079	0.047
323.452	0.0459
323.824	0.045
324.196	0.0447
324.568	0.0458
324.94	0.0449
325.312	0.0457
325.684	0.0432
326.056	0.0422
326.428	0.0398
326.8	0.0406
327.172	0.0428
327.544	0.0429
327.915	0.0413
328.287	0.0406
328.659	0.04
329.031	0.0406
329.402	0.0388
329.774	0.04
330.145	0.0388
330.517	0.0404
330.888	0.038
331.26	0.0391
331.631	0.0369
332.003	0.0388
332.374	0.037
332.745	0.0384
333.117	0.0349
333.488	0.0331
333.859	0.0328
334.23	0.0347
334.601	0.0378
334.972	0.037
335.343	0.0379
335.714	0.0354
336.085	0.0351
336.456	0.0333
336.827	0.0336
337.198	0.0332
337.569	0.0338
337.94	0.0337
338.31	0.0344
338.681	0.0337
339.052	0.0329
339.422	0.0317
339.793	0.0309
340.164	0.0303
340.534	0.029
340.905	0.0284
341.275	0.0296
341.645	0.0302
342.016	0.0314
342.386	0.0305
342.756	0.0311
343.127	0.0314
343.497	0.0312
343.867	0.031
344.237	0.03
344.607	0.03
344.977	0.0298
345.347	0.0307
345.717	0.0311
346.087	0.0306
346.457	0.0301
346.827	0.028
347.197	0.0262
347.567	0.0261
347.936	0.0268
348.306	0.0288
348.676	0.0276
349.046	0.0262
349.415	0.0264
349.785	0.0269
350.154	0.0279
350.524	0.0276
350.893	0.0281
351.263	0.029
351.632	0.0302
352.001	0.0293
352.371	0.0301
352.74	0.028
353.109	0.0284
353.478	0.0284
353.847	0.0288
354.217	0.0296
354.586	0.0284
354.955	0.0273
355.324	0.025
355.693	0.0235
356.062	0.0252
356.43	0.0258
356.799	0.0256
357.168	0.0239
357.537	0.025
357.906	0.0255
358.274	0.0264
358.643	0.0238
359.011	0.0241
359.38	0.0249
359.749	0.0256
360.117	0.024
360.486	0.021
360.854	0.0211
361.222	0.0224
361.591	0.0239
361.959	0.0239
362.327	0.0218
362.695	0.0211
363.064	0.0189
363.432	0.0189
363.8	0.0191
364.168	0.0211
364.536	0.0223
364.904	0.0227
365.272	0.0218
365.64	0.0224
366.008	0.0198
366.376	0.0197
366.743	0.0176
367.111	0.0201
367.479	0.0221
367.847	0.0226
368.214	0.0211
368.582	0.0197
368.949	0.0178
369.317	0.0199
369.684	0.0182
370.052	0.0192
370.419	0.0181
370.787	0.0203
371.154	0.0197
371.521	0.0192
371.889	0.0181
372.256	0.0207
372.623	0.0201
372.99	0.0195
373.357	0.0174
373.724	0.0168
374.091	0.0166
374.458	0.0172
374.825	0.0185
375.192	0.0184
375.559	0.0186
375.926	0.0172
376.293	0.0177
376.659	0.016
377.026	0.0162
377.393	0.0184
377.759	0.0183
378.126	0.0179
378.492	0.015
378.859	0.0158
379.225	0.0156
379.592	0.016
379.958	0.0164
380.325	0.0165
380.691	0.0165
381.057	0.0155
381.423	0.0156
381.79	0.0138
382.156	0.0141
382.522	0.0134
382.888	0.0161
383.254	0.0164
383.62	0.0155
383.986	0.0125
384.352	0.0117
384.718	0.0131
385.084	0.014
385.449	0.0135
385.815	0.0138
386.181	0.0143
386.547	0.0145
386.912	0.0128
387.278	0.0104
387.643	0.01
388.009	0.01
388.374	0.0108
388.74	0.0123
389.105	0.0127
389.471	0.0153
389.836	0.0151
390.201	0.016
390.566	0.0146
390.932	0.0136
391.297	0.015
391.662	0.0133
392.027	0.0127
392.392	0.0089
392.757	0.0094
393.122	0.0102
393.487	0.0123
393.852	0.0129
394.217	0.0129
394.582	0.0118
394.946	0.0127
395.311	0.0136
395.676	0.0144
396.04	0.013
396.405	0.0126
396.77	0.0126
397.134	0.0128
397.499	0.011
397.863	0.0095
398.227	0.0089
398.592	0.0091
398.956	0.0077
399.32	0.0086
399.685	0.0092
400.049	0.0124
400.413	0.0128
400.777	0.0125
401.141	0.0112
401.505	0.0107
401.869	0.0095
402.233	0.0097
402.597	0.0094
402.961	0.0104
403.325	0.0097
403.689	0.0094
404.053	0.0113
404.416	0.0106
404.78	0.012
405.144	0.0095
405.507	0.0094
405.871	0.009
406.234	0.0095
406.598	0.0109
406.961	0.0119
407.325	0.011
407.688	0.0103
408.051	0.0099
408.415	0.0115
408.778	0.0132
409.141	0.0105
409.504	0.0085
409.867	0.0073
410.23	0.0076
410.593	0.0076
410.956	0.0059
411.319	0.0054
411.682	0.0062
412.045	0.0085
412.408	0.0116
412.771	0.0114
413.134	0.0102
413.496	0.0074
413.859	0.0062
414.222	0.0056
414.584	0.0067
414.947	0.0087
415.309	0.0073
415.672	0.0056
416.034	0.0036
416.396	0.0023
416.759	0.0045
417.121	0.006
417.483	0.0107
417.846	0.0097
418.208	0.0112
418.57	0.0089
418.932	0.0084
419.294	0.0058
419.656	0.0067
420.018	0.0077
420.38	0.0084
420.742	0.0078
421.104	0.0049
421.466	0.0048
421.827	0.0076
422.189	0.0107
422.551	0.0107
422.912	0.0087
423.274	0.0087
423.636	0.0069
423.997	0.0046
424.359	0.0046
424.72	0.0059
425.081	0.006
425.443	0.0064
425.804	0.0063
426.165	0.0066
426.527	0.0054
426.888	0.0062
427.249	0.0076
427.61	0.0076
427.971	0.0061
428.332	0.0047
428.693	0.0061
429.054	0.0065
429.415	0.0076
429.776	0.0054
430.137	0.0057
430.498	0.0048
430.858	0.0042
431.219	0.0045
431.58	0.0041
431.94	0.0069
432.301	0.0072
432.661	0.0064
433.022	0.005
433.382	0.0037
433.743	0.0044
434.103	0.0058
434.463	0.0058
434.824	0.0068
435.184	0.0048
435.544	0.0059
435.904	0.0047
436.264	0.0038
436.624	0.004
436.985	0.0045
437.345	0.0067
437.704	0.0063
438.064	0.0072
438.424	0.0064
438.784	0.0052
439.144	0.0057
439.504	0.0046
439.863	0.0052
440.223	0.0036
440.583	0.0022
440.942	0.0013
441.302	0.0025
441.661	0.0057
442.021	0.0063
442.38	0.0087
442.739	0.0067
443.099	0.0081
443.458	0.005
443.817	0.0038
444.176	0.0036
444.536	0.0008
444.895	0.0032
445.254	0.0021
445.613	0.0046
445.972	0.0038
446.331	0.0033
446.69	0.0034
447.049	0.0019
447.407	0.0031
447.766	0.0036
448.125	0.0069
448.484	0.0065
448.842	0.0051
449.201	0.0054
449.559	0.0044
449.918	0.0052
450.276	0.0025
450.635	0.002
450.993	-0.0014
451.352	-0.0015
451.71	0.003
452.068	0.0074
452.426	0.0087
452.785	0.0025
453.143	0.0011
453.501	0.0024
453.859	0.0055
454.217	0.0043
454.575	0.0043
454.933	0.005
455.291	0.0061
455.649	0.0035
456.006	0.0051
456.364	0.0059
456.722	0.0079
457.079	0.0067
457.437	0.0065
457.795	0.005
458.152	0.0035
458.51	0.0039
458.867	0.0051
459.225	0.0043
459.582	0.0036
459.939	0.0045
460.297	0.0024
460.654	0.0006
461.011	0.0003
461.368	0.0047
461.725	0.0062
462.082	0.0041
462.44	0.0049
462.797	0.0041
463.153	0.005
463.51	0.0037
463.867	0.0043
464.224	0.002
464.581	0.0023
464.938	0.0024
465.294	0.0041
465.651	0.003
466.008	0.0012
466.364	0.0004
466.721	0.0011
467.077	0.0032
467.434	0.0043
467.79	0.0029
468.146	0.0012
468.503	-0
468.859	-0.0013
469.215	-0.0003
469.571	0.0013
469.927	0.005
470.284	0.0061
470.64	0.0047
470.996	0.003
471.352	0.0024
471.707	0.0035
472.063	0.0046
472.419	0.0028
472.775	0.0037
473.131	0.0017
473.486	0.0054
473.842	0.0051
474.198	0.0054
474.553	0.0035
474.909	0.0024
475.264	0.0008
475.62	0.0017
475.975	0.0028
476.331	0.0038
476.686	0.0018
477.041	-0.0013
477.396	0.0009
477.752	0.0011
478.107	0.004
478.462	0.0012
478.817	0.0035
479.172	0.0028
479.527	0.0041
479.882	0.0027
480.237	0.0029
480.591	0.0028
480.946	0.0034
481.301	0.0038
481.656	0.0011
482.01	0.0004
482.365	0.001
482.72	0.0038
483.074	0.0037
483.429	0.0003
483.783	-0.0003
484.137	-0.0017
484.492	-0.0009
484.846	0.0009
485.2	0.0012
485.555	0.004
485.909	0.0033
486.263	0.0044
486.617	0.0024
486.971	0.0012
487.325	0.0021
487.679	0.0035
488.033	0.0038
488.387	0.0021
488.741	0.0011
489.094	0.002
489.448	0.0022
489.802	0.0023
490.156	-0.0016
490.509	-0.0004
490.863	-0.0001
491.216	0.003
491.57	0.0016
491.923	0.0018
492.277	0.0017
492.63	0.0002
492.983	-0.0007
493.337	-0.0011
493.69	0.0006
494.043	0.0013
494.396	0.0027
494.749	0.0023
495.102	0.0023
495.455	0.0005
495.808	-0.001
496.161	-0.0017
496.514	-0.0005
496.867	0.0015
497.22	0.0007
497.572	-0.0024
497.925	-0.0035
498.278	-0.0017
498.63	0
498.983	0.0012
499.335	0.0012
499.688	0.0022
500.04	0.003
500.393	0.0021
500.745	0.0009
501.097	0.001
501.449	0.0025
501.802	0.003
502.154	0.0015
502.506	0.0013
502.858	-0.0008
503.21	-0.0005
503.562	0.0002
503.914	0.0036
504.266	0.0031
504.618	0.0018
504.969	0.0009
505.321	0.0003
505.673	-0.0017
506.025	-0.0001
506.376	0.0017
506.728	0.0038
507.079	0.0024
507.431	0.0015
507.782	0.0012
508.134	-0.0016
508.485	-0.0022
508.836	-0.0036
509.188	-0.0015
509.539	-0.001
509.89	-0.0024
510.241	-0.003
510.592	-0.0025
510.943	-0.0019
511.294	0.0004
511.645	0.0002
511.996	0.004
512.347	0.0001
512.698	0.0018
513.049	-0
513.399	0.0022
513.75	-0.001
514.101	-0.0018
514.451	-0.0023
514.802	-0.0007
515.152	-0.0004
515.503	-0.0023
515.853	-0.0019
516.203	-0.0009
516.554	0.0011
516.904	0.0009
517.254	0.0004
517.604	0.0005
517.955	0.0018
518.305	0.0024
518.655	0.0022
519.005	0.0007
519.355	-0.0015
519.705	-0.003
520.055	-0.0054
520.404	-0.0033
520.754	-0.001
521.104	-0.001
521.454	-0.0008
521.803	-0.0025
522.153	0.0026
522.502	0.0011
522.852	0.0012
523.201	-0.0015
523.551	-0.0009
523.9	0.0015
524.249	0.003
524.599	0.0001
524.948	-0.0021
525.297	-0.0041
525.646	-0.0026
525.995	-0.0023
526.344	-0.0024
526.694	-0.0014
527.042	-0.0027
527.391	-0.0059
527.74	-0.0057
528.089	-0.0066
528.438	-0.0046
528.787	-0.0039
529.135	-0.0022
529.484	-0.0021
529.833	-0.0042
530.181	-0.0035
530.53	-0.0007
530.878	0.0006
531.227	-0.0006
531.575	-0.0006
531.923	-0.0007
532.271	0.0017
532.62	0.0014
532.968	0.0014
533.316	-0.0007
533.664	-0.0022
534.012	-0.0054
534.36	-0.0052
534.708	-0.0069
535.056	-0.0044
535.404	-0.0013
535.752	0.0046
536.1	0.0038
536.447	0.0027
536.795	-0.0017
537.143	0.0007
537.49	-0.0006
537.838	-0.0014
538.185	-0.0026
538.533	-0.0021
538.88	0.0008
539.228	0.0012
539.575	0.0014
539.922	-0.0012
540.269	-0.0008
540.617	-0.0022
540.964	-0.0005
541.311	0.0001
541.658	0.0002
542.005	0.0004
542.352	-0.0022
542.699	-0.0001
543.045	-0.0026
543.392	0.0001
543.739	-0.0005
544.086	-0.0008
544.432	-0.0019
544.779	-0.0026
545.126	-0.0006
545.472	0.0037
545.819	0.0051
546.165	0.0068
546.512	0.0027
546.858	0.0013
547.204	-0.0022
547.55	-0.0023
547.897	-0.0005
548.243	0.0007
548.589	0.0001
548.935	-0.0026
549.281	-0.0042
549.627	-0.0033
549.973	-0.0039
550.319	-0.0025
550.665	-0.0014
551.01	0.0008
551.356	0.0014
551.702	-0.0013
552.048	-0.0037
552.393	-0.0043
552.739	-0.0022
553.084	-0.0024
553.43	-0.0035
553.775	-0.0038
554.12	-0.0032
554.466	-0.0022
554.811	-0.002
555.156	-0.0005
555.502	0
555.847	0.002
556.192	-0.0007
556.537	-0.0012
556.882	-0.0041
557.227	-0.0046
557.572	-0.003
557.917	-0.0018
558.261	0.0009
558.606	0.0012
558.951	0.0004
559.295	0.0016
559.64	-0.0011
559.985	-0.0035
560.329	-0.0054
560.674	-0.0016
561.018	-0.0002
561.363	-0.0009
561.707	-0.0058
562.051	-0.0037
562.395	-0.0027
562.74	-0.0004
563.084	-0.0012
563.428	-0.0013
563.772	-0.0018
564.116	-0.0026
564.46	-0.0005
564.804	0.0013
565.148	0.0016
565.492	-0.0004
565.835	-0.0018
566.179	0.0008
566.523	-0.0007
566.866	-0.0044
567.21	-0.0075
567.554	-0.0068
567.897	-0.0018
568.24	-0.0031
568.584	-0.0057
568.927	-0.0055
569.271	-0.0047
569.614	-0.0051
569.957	-0.0056
570.3	-0.0043
570.643	-0.003
570.986	-0.002
571.329	-0.003
571.672	0.0008
572.015	-0.0021
572.358	-0.0019
572.701	-0.0043
573.044	-0.0031
573.387	-0.0012
573.729	-0.0002
574.072	-0.0004
574.414	-0.0004
574.757	-0.0012
575.099	-0.0035
575.442	-0.0056
575.784	-0.0034
576.127	0.0008
576.469	0.0007
576.811	0.0001
577.153	-0.0004
577.496	-0.0015
577.838	-0.003
578.18	-0.0041
578.522	-0.0042
578.864	-0.0064
579.206	-0.006
579.548	-0.0027
579.889	-0.0027
580.231	-0.0011
580.573	-0.0018
580.915	-0.0016
581.256	-0.0053
581.598	-0.0058
581.939	-0.0058
582.281	-0.0018
582.622	-0.0037
582.964	-0.0029
583.305	-0.0044
583.646	-0.0044
583.988	-0.0013
584.329	-0.002
584.67	-0.0031
585.011	-0.0066
585.352	-0.0073
585.693	-0.0043
586.034	-0.0027
586.375	-0.0037
586.716	-0.0056
587.057	-0.0036
587.398	-0.0008
587.738	-0.0004
588.079	-0.0018
588.42	-0.0021
588.76	-0.0043
589.101	-0.0027
589.441	-0.0019
589.782	0.0007
590.122	-0.0008
590.463	-0.0031
590.803	-0.004
591.143	-0.0035
591.483	-0.0047
591.823	-0.0053
592.164	-0.0077
592.504	-0.0052
592.844	-0.0042
593.184	-0.0039
593.523	-0.0042
593.863	-0.0036
594.203	-0.0042
594.543	-0.0013
594.883	-0.004
595.222	-0.002
595.562	-0.0027
595.901	-0.0023
596.241	-0.0019
596.58	-0.0039
596.92	-0.0033
597.259	-0.0064
597.599	-0.0058
597.938	-0.0054
598.277	-0.005
598.616	-0.0062
598.955	-0.0094
599.295	-0.0074
599.634	-0.0048
599.973	-0.0023
600.312	-0.0025
600.65	-0.0061
600.989	-0.0049
601.328	-0.0033
601.667	0.0003
602.005	-0.0048
602.344	-0.0068
602.683	-0.0067
603.021	-0.0037
603.36	-0.0043
603.698	-0.0064
604.037	-0.0049
604.375	-0.0028
604.713	-0.0024
605.052	-0.0021
605.39	-0.0031
605.728	-0.0029
606.066	-0.0041
606.404	-0.0049
606.742	-0.0038
607.08	-0.0017
607.418	-0.0038
607.756	-0.0037
608.094	-0.0044
608.431	-0.0032
608.769	-0.0033
609.107	-0.0075
609.444	-0.0063
609.782	-0.0051
610.12	-0.0001
610.457	-0.001
610.794	-0.0035
611.132	-0.0068
611.469	-0.008
611.806	-0.0085
612.144	-0.0097
612.481	-0.0063
612.818	-0.0027
613.155	-0.0028
613.492	-0.0038
613.829	-0.0035
614.166	-0.0015
614.503	-0.0009
614.84	-0.0044
615.176	-0.0048
615.513	-0.0043
615.85	-0.004
616.187	-0.0031
616.523	-0.004
616.86	-0.0045
617.196	-0.0026
617.533	-0.0003
617.869	-0.0008
618.205	-0.0036
618.542	-0.0059
618.878	-0.0069
619.214	-0.0055
619.55	-0.0089
619.886	-0.008
620.222	-0.0069
620.558	-0.0022
620.894	-0.0018
621.23	-0.0052
621.566	-0.0073
621.902	-0.0065
622.238	-0.0046
622.573	-0.0048
622.909	-0.0091
623.244	-0.0123
623.58	-0.0109
623.916	-0.0069
624.251	-0.0059
624.586	-0.0059
624.922	-0.0044
625.257	-0.0062
625.592	-0.0063
625.927	-0.0066
626.263	-0.0055
626.598	-0.0048
626.933	-0.0052
627.268	-0.0034
627.603	-0.0052
627.938	-0.0087
628.272	-0.0079
628.607	-0.0083
628.942	-0.0034
629.277	-0.0076
629.611	-0.0101
629.946	-0.0142
630.281	-0.0102
630.615	-0.0077
630.949	-0.006
631.284	-0.0057
631.618	-0.003
631.953	-0.0016
632.287	-0.0036
632.621	-0.0063
632.955	-0.0081
633.289	-0.0074
633.623	-0.0078
633.957	-0.0037
634.291	-0.0071
634.625	-0.0065
634.959	-0.0111
635.293	-0.0087
635.627	-0.0069
635.96	-0.0049
636.294	-0.0059
636.627	-0.0106
636.961	-0.0079
637.294	-0.0065
637.628	-0.0029
637.961	-0.007
638.295	-0.0068
638.628	-0.0044
638.961	-0.0045
639.294	-0.0023
639.628	-0.0042
639.961	-0.0025
640.294	-0.0066
640.627	-0.0079
640.96	-0.0086
641.293	-0.0073
641.625	-0.0072
641.958	-0.0046
642.291	-0.0055
642.624	-0.0046
642.956	-0.0072
643.289	-0.003
643.621	-0.0064
643.954	-0.0092
644.286	-0.0101
644.619	-0.0053
644.951	-0.0026
645.283	-0.0001
645.616	-0.0025
645.948	0.0004
646.28	-0.0031
646.612	-0.0031
646.944	-0.0054
647.276	-0.0077
647.608	-0.0122
647.94	-0.0118
648.272	-0.0104
648.603	-0.0041
648.935	-0.0055
649.267	-0.0052
649.598	-0.0082
649.93	-0.0077
650.261	-0.0047
650.593	-0.0035
650.924	-0.0037
651.256	-0.006
651.587	-0.0073
651.918	-0.0082
652.25	-0.0097
652.581	-0.0087
652.912	-0.0096
653.243	-0.0078
653.574	-0.0048
653.905	-0.0032
654.236	-0.0061
654.567	-0.0098
654.897	-0.0101
655.228	-0.0082
655.559	-0.0053
655.89	-0.0039
656.22	0.0011
656.551	-0.0061
656.881	-0.006
657.212	-0.0124
657.542	-0.0076
657.872	-0.0069
658.203	-0.0073
658.533	0.0066
658.863	0.0042
659.193	-0.0038
659.523	-0.0087
659.853	-0.0165
660.183	-0.0065
660.513	-0.0022
660.843	-0.0023
661.173	-0.0011
661.503	-0.0012
661.833	-0.0037
662.162	-0.0055
662.492	-0.0057
662.822	-0.0068
663.151	-0.0088
663.481	-0.0065
663.81	-0.0044
664.139	-0.0044
664.469	-0.0004
664.798	0.0038
665.127	0.002
665.456	-0.0027
665.785	-0.0059
666.114	-0.0068
666.443	-0.0056
666.772	-0.0092
667.101	-0.0095
667.43	-0.0152
667.759	-0.0116
668.088	-0.0092
668.416	-0.0073
668.745	-0.0096
669.074	-0.01
669.402	-0.0136
669.731	-0.011
670.059	-0.0121
670.388	-0.005
670.716	-0.0069
671.044	-0.007
671.372	-0.0106
671.701	-0.006
672.029	-0.0034
672.357	-0.0017
672.685	-0.0032
673.013	-0.0036
673.341	-0.0048
673.669	-0.0077
673.996	-0.0084
674.324	-0.001
674.652	0.0019
674.98	-0.0008
675.307	-0.0057
675.635	-0.0066
675.962	-0.005
676.29	-0.0041
676.617	-0.0038
676.945	-0.0022
677.272	-0.0049
677.599	-0.0082
677.926	-0.0096
678.253	-0.0099
678.581	-0.0089
678.908	-0.0082
679.235	-0.0058
679.561	-0.008
679.888	-0.0087
680.215	-0.0091
680.542	-0.0119
680.869	-0.0081
681.195	-0.0104
681.522	-0.0048
681.849	-0.0075
682.175	-0.0092
682.502	-0.0096
682.828	-0.0104
683.154	-0.0038
683.481	-0.0051
683.807	-0.0021
684.133	-0.0097
684.459	-0.0119
684.785	-0.0109
685.111	-0.0054
685.437	-0.0008
685.763	-0.003
686.089	-0.0071
686.415	-0.0073
686.741	-0.0058
687.067	-0.0034
687.392	-0.004
687.718	-0.0061
688.043	-0.0061
688.369	-0.0063
688.694	-0.0055
689.02	-0.0075
689.345	-0.0093
689.67	-0.0084
689.996	-0.0076
690.321	-0.0048
690.646	-0.0067
690.971	-0.006
691.296	-0.0092
691.621	-0.0104
691.946	-0.0132
692.271	-0.0113
692.596	-0.0075
692.921	-0.0064
693.245	-0.0046
693.57	-0.0073
693.895	-0.007
694.219	-0.0083
694.544	-0.0078
694.868	-0.0065
695.193	-0.0067
695.517	-0.0077
695.841	-0.0097
696.166	-0.0052
696.49	-0.0029
696.814	0.0013
697.138	-0.0053
697.462	-0.0033
697.786	-0.0053
698.11	-0.0028
698.434	-0.0063
698.758	-0.0091
699.081	-0.0098
699.405	-0.0075
699.729	-0.0045
700.052	-0.0066
700.376	-0.0131
700.7	-0.016
701.023	-0.0163
701.346	-0.0091
701.67	-0.0061
701.993	-0.0036
702.316	-0.0049
702.639	-0.0045
702.963	-0.0062
703.286	-0.0082
703.609	-0.0062
703.932	-0.005
704.255	-0.0046
704.578	-0.0056
704.9	-0.0064
705.223	-0.0052
705.546	-0.0071
705.868	-0.0085
706.191	-0.009
706.514	-0.011
706.836	-0.0076
707.159	-0.0065
707.481	-0.0041
707.803	-0.008
708.126	-0.0095
708.448	-0.0076
708.77	-0.004
709.092	-0.0073
709.414	-0.0073
709.736	-0.0096
710.058	-0.0056
710.38	-0.0041
710.702	-0.0062
711.024	-0.0056
711.345	-0.0078
711.667	-0.0055
711.989	-0.0108
712.31	-0.0124
712.632	-0.016
712.953	-0.016
713.275	-0.012
713.596	-0.0084
713.917	-0.0033
714.239	-0.0073
714.56	-0.0072
714.881	-0.011
715.202	-0.0088
715.523	-0.005
715.844	-0.0012
716.165	-0.0042
716.486	-0.0063
716.807	-0.0118
717.128	-0.011
717.448	-0.0086
717.769	-0.0083
718.09	-0.0094
718.41	-0.0117
718.731	-0.0083
719.051	-0.0061
719.372	-0.0065
719.692	-0.0101
720.012	-0.0073
720.332	-0.0096
720.653	-0.0043
720.973	-0.0083
721.293	-0.0086
721.613	-0.0097
721.933	-0.0116
722.253	-0.0069
722.573	-0.0111
722.892	-0.012
723.212	-0.0133
723.532	-0.0102
723.851	-0.0076
724.171	-0.0074
724.491	-0.0072
724.81	-0.0022
725.129	-0.0065
725.449	-0.006
725.768	-0.006
726.087	-0.0038
726.407	-0.007
726.726	-0.0071
727.045	-0.0119
727.364	-0.0131
727.683	-0.0164
728.002	-0.0154
728.321	-0.013
728.64	-0.0152
728.958	-0.0101
729.277	-0.0107
729.596	-0.0087
729.914	-0.0099
730.233	-0.006
730.551	-0.0048
730.87	-0.0061
731.188	-0.0093
731.507	-0.0086
731.825	-0.0093
732.143	-0.0066
732.461	-0.0051
732.779	-0.0057
733.097	-0.0082
733.415	-0.0103
733.733	-0.0102
734.051	-0.0087
734.369	-0.0106
734.687	-0.0102
735.005	-0.009
735.322	-0.0047
735.64	-0.0036
735.957	-0.0047
736.275	-0.0067
736.592	-0.0098
736.91	-0.0127
737.227	-0.0124
737.544	-0.0037
737.862	-0
738.179	-0.0038
738.496	-0.0078
738.813	-0.0121
739.13	-0.0101
739.447	-0.0113
739.764	-0.0058
740.081	-0.0092
740.398	-0.0111
740.714	-0.0184
741.031	-0.0145
741.348	-0.0139
741.664	-0.0063
741.981	-0.0013
742.297	0.0014
742.614	0.0005
742.93	-0.0054
743.246	-0.013
743.563	-0.0219
743.879	-0.023
744.195	-0.0161
744.511	-0.0124
744.827	-0.0106
745.143	-0.0099
745.459	-0.0045
745.775	-0.0042
746.091	-0.0089
746.406	-0.0111
746.722	-0.0116
747.038	-0.0068
747.353	-0.0069
747.669	-0.0091
747.984	-0.0148
748.3	-0.0128
748.615	-0.0109
748.93	-0.0053
749.246	-0.0073
749.561	-0.0089
749.876	-0.0134
750.191	-0.0118
750.506	-0.0109
750.821	-0.0075
751.136	-0.0114
751.451	-0.01
751.766	-0.0102
752.08	-0.0089
752.395	-0.0066
752.71	-0.0095
753.024	-0.0067
753.339	-0.0103
753.653	-0.0118
753.968	-0.0146
754.282	-0.0122
754.596	-0.0121
754.911	-0.0132
755.225	-0.0147
755.539	-0.0126
755.853	-0.0121
756.167	-0.0137
756.481	-0.0164
756.795	-0.0174
757.109	-0.0151
757.423	-0.0073
757.736	-0.0077
758.05	-0.0092
758.364	-0.0091
758.677	-0.0059
758.991	-0.0008
759.304	-0.0078
759.618	-0.0055
759.931	-0.0095
760.244	-0.0083
760.558	-0.0111
760.871	-0.0098
761.184	-0.0106
761.497	-0.0111
761.81	-0.0129
762.123	-0.0086
762.436	-0.0053
762.749	-0.0038
763.062	-0.0053
763.374	-0.0077
763.687	-0.0107
764	-0.0114
764.312	-0.0104
764.625	-0.0087
764.937	-0.0099
765.25	-0.0143
765.562	-0.0129
765.874	-0.0121
766.186	-0.0116
766.499	-0.0097
766.811	-0.009
767.123	-0.0042
767.435	-0.0057
767.747	-0.0044
768.059	-0.0082
768.37	-0.0067
768.682	-0.0112
768.994	-0.0094
769.306	-0.0131
769.617	-0.0123
769.929	-0.0117
770.24	-0.01
770.552	-0.0041
770.863	-0.0048
771.174	-0.0068
771.486	-0.0087
771.797	-0.01
772.108	-0.0131
772.419	-0.011
772.73	-0.0111
773.041	-0.0094
773.352	-0.0132
773.663	-0.0117
773.974	-0.0047
774.285	-0.0106
774.595	-0.0107
774.906	-0.0148
775.217	-0.0071
775.527	-0.0095
775.838	-0.0054
776.148	-0.0105
776.458	-0.0056
776.769	-0.0104
777.079	-0.0051
777.389	-0.0089
777.699	-0.0081
778.009	-0.0092
778.319	-0.0067
778.629	-0.0101
778.939	-0.0147
779.249	-0.0151
779.559	-0.0108
779.869	-0.0117
780.178	-0.0186
780.488	-0.0198
780.798	-0.0161
781.107	-0.0125
781.417	-0.0097
781.726	-0.0101
782.035	-0.0077
782.345	-0.0113
782.654	-0.0042
782.963	-0.0074
783.272	-0.0046
783.581	-0.0042
783.89	-0.0069
784.199	-0.0063
784.508	-0.0088
784.817	-0.0049
785.126	-0.009
785.434	-0.0111
785.743	-0.0071
786.052	-0.0039
786.36	-0.0019
786.669	-0.0073
786.977	-0.0075
787.285	-0.0091
787.594	-0.0101
787.902	-0.0133
788.21	-0.013
788.518	-0.0089
788.826	-0.0041
789.135	-0.0073
789.442	-0.0087
789.75	-0.0141
790.058	-0.0077
790.366	-0.0146
790.674	-0.0079
790.981	-0.0127
791.289	-0.0066
791.597	-0.0088
791.904	-0.0097
792.212	-0.0094
792.519	-0.0124
792.826	-0.0145
793.134	-0.0071
793.441	-0.0063
793.748	-0.0079
794.055	-0.0147
794.362	-0.0103
794.669	-0.0078
794.976	-0.0111
795.283	-0.0141
795.59	-0.0095
795.897	-0.0096
796.203	-0.0031
796.51	-0.0021
796.817	-0.0028
797.123	-0.0111
797.43	-0.0121
797.736	-0.0082
798.042	-0.0088
798.349	-0.0096
798.655	-0.0084
798.961	-0.0047
799.267	-0.0067
799.573	-0.0128
799.879	-0.0051
800.185	-0.0007
800.491	0.0019
800.797	-0.005
801.103	-0.0069
801.408	-0.0091
801.714	-0.0106
802.02	-0.0152
802.325	-0.0104
802.631	-0.0102
802.936	-0.0136
803.242	-0.0187
803.547	-0.0212
803.852	-0.0127
804.157	-0.0066
804.462	-0.0003
804.768	-0.0025
805.073	-0.0071
805.378	-0.0093
805.682	-0.008
805.987	-0.0097
806.292	-0.0056
806.597	-0.0067
806.902	-0.0037
807.206	-0.0072
807.511	-0.0086
807.815	-0.0077
808.12	-0.0034
808.424	-0.0018
808.728	-0.0073
809.033	-0.0099
809.337	-0.009
809.641	-0.0076
809.945	-0.0102
810.249	-0.0145
810.553	-0.0056
810.857	-0.0026
811.161	0.0022
811.465	-0.0093
811.768	-0.0187
812.072	-0.0183
812.376	-0.0166
812.679	-0.003
812.983	-0.0055
813.286	-0.0064
813.59	-0.0188
813.893	-0.0224
814.196	-0.0177
814.499	-0.0225
814.803	-0.0229
815.106	-0.0222
815.409	-0.0129
815.712	-0.0077
816.015	-0.0051
816.318	-0.0071
816.62	-0.0005
816.923	-0.0032
817.226	-0.0032
817.528	-0.0098
817.831	-0.0114
818.133	-0.0081
818.436	-0.0102
818.738	-0.0059
819.041	-0.0032
819.343	0.0044
819.645	0.0008
819.947	0.0049
820.249	-0.0003
820.551	-0.0001
820.853	-0.0108
821.155	-0.0202
821.457	-0.0239
821.759	-0.0124
822.061	-0.0046
822.362	0.0025
822.664	-0.0004
822.966	-0.0057
823.267	-0.0076
823.569	-0.0156
823.87	-0.014
824.171	-0.0177
824.473	-0.0189
824.774	-0.0173
825.075	-0.0192
825.376	-0.0184
825.677	-0.0181
825.978	-0.0153
826.279	-0.0099
826.58	-0.0124
826.881	-0.0193
827.181	-0.0226
827.482	-0.0124
827.783	0.0052
828.083	0.0086
828.384	0.002
828.684	-0.0054
828.985	-0.0136
829.285	-0.0184
829.585	-0.0207
829.885	-0.0102
830.185	-0.0027
830.486	0.0004
830.786	0.0047
831.086	0.0039
831.385	0.0048
831.685	-0.0014
831.985	-0.0046
832.285	-0.0071
832.585	-0.0086
832.884	-0.0169
833.184	-0.0204
833.483	-0.0216
833.783	-0.0155
834.082	-0.0137
834.381	-0.0152
834.681	-0.0092
834.98	-0.0087
835.279	-0.0136
835.578	-0.0219
835.877	-0.0239
836.176	-0.0204
836.475	-0.0123
836.774	-0.0223
837.072	-0.0188
837.371	-0.023
837.67	-0.01
837.968	-0.0097
838.267	-0.0124
838.565	-0.0169
838.864	-0.0078
839.162	-0.0132
839.46	-0.0062
839.759	-0.0158
840.057	-0.0127
840.355	-0.0148
840.653	-0.008
840.951	-0.0141
841.249	-0.0054
841.547	-0.0203
841.845	-0.009
842.142	-0.0195
842.44	-0.015
842.738	-0.0226
843.035	-0.0285
843.333	-0.0225
843.63	-0.0177
843.928	-0.009
844.225	-0.0142
844.522	-0.0013
844.82	-0.0172
845.117	-0.0176
845.414	-0.0285
845.711	-0.0247
846.008	-0.0237
846.305	-0.0169
846.602	-0.0027
846.898	-0.0035
847.195	-0.0074
847.492	-0.0124
847.788	-0.0069
848.085	-0.0119
848.382	-0.014
848.678	-0.0175
848.974	-0.0086
849.271	0.0095
849.567	0.003
849.863	0.0023
850.159	-0.0103
850.455	-0.0051
850.751	-0.0017
851.047	-0.0098
851.343	-0.0115
851.639	-0.0298
851.935	-0.0285
852.23	-0.0278
852.526	-0.0239
852.822	-0.019
853.117	-0.0211
853.413	-0.0145
853.708	-0.0246
854.003	-0.0151
854.299	-0.0032
854.594	-0.0123
854.889	-0.0165
855.184	-0.0321
855.479	-0.019
855.774	-0.0313
856.069	-0.0158
856.364	-0.0246
856.659	-0.0203
856.954	-0.0362
857.248	-0.0244
857.543	-0.0181
857.837	-0.013
858.132	-0.0038
858.426	-0.0082
858.721	-0.0068
859.015	-0.0105
859.309	0.0143
859.604	0.0059
859.898	0.0163
860.192	-0.0054
860.486	0.0164
860.78	0.0005
861.074	-0.009
861.367	-0.024
861.661	-0.0195
861.955	-0.0077
862.248	0.0081
862.542	-0.0021
862.836	-0.0046
863.129	-0.0082
863.422	-0.0066
863.716	-0.0213
864.009	-0.0332
864.302	-0.0246
864.595	-0.0164
864.889	-0.0135
865.182	-0.0258
865.475	-0.0281
865.767	-0.0472
866.06	-0.0274
866.353	-0.0142
866.646	-0.0222
866.938	-0.0407
867.231	-0.0283
867.524	-0.0181
867.816	-0.0185
868.109	-0.0404
868.401	-0.0624
868.693	-0.0531
868.985	-0.0382
869.278	-0.0081
869.57	-0.0136
869.862	-0.0263
870.154	-0.0303
870.446	-0.0299
870.738	-0.0409
871.029	-0.0366
871.321	-0.0367
871.613	-0.0202
871.904	-0.024
872.196	-0.0309
872.487	-0.0344
872.779	-0.0245
873.07	-0.0211
873.362	-0.0215
873.653	-0.0319
873.944	-0.0162
874.235	-0.0081
874.526	0.0067
874.817	0.0162
875.108	0.0151
875.399	0.0164
875.69	0.0237
875.981	-0.0149
876.271	-0.0271
876.562	-0.0328
876.853	0.0064
877.143	0.0006
877.434	-0.0327
877.724	-0.0461
878.014	-0.0216
878.305	-0.0008
878.595	-0.0116
878.885	-0.0153
879.175	-0.0209
879.465	0.017
879.755	0.0165
880.045	0.0387
880.335	0.0298
880.624	0.0464
880.914	0.0464
