Data from 1SS02BU-2_080317_1b_Absorbance_15-43-13-111.txt Node
Date: Sun Aug 06 15:43:13 MDT 2017
User: Tank Lab
Spectrometer: FLMS01220
Trigger mode: 0
Integration Time (sec): 1.000000E-1
Scans to average: 10
Electric dark correction enabled: true
Nonlinearity correction enabled: false
Boxcar width: 1
XAxis mode: Wavelengths
Number of Pixels in Spectrum: 2048
>>>>>Begin Spectral Data<<<<<
179.47	-0.046
179.856	-0.046
180.241	0.0767
180.626	0.5583
181.011	-0
181.396	0.8842
181.781	-0.5374
182.166	0.3516
182.551	0.4394
182.936	-0
183.321	-0
183.706	-0
184.091	-0
184.476	-0
184.86	0.184
185.245	-0
185.63	-0.2696
186.015	0.205
186.399	-0.0402
186.784	-0.2734
187.169	0.3948
187.553	0.3214
187.938	-0
188.322	-0.0083
188.707	0.0381
189.091	0.0868
189.475	0.0466
189.86	0.0595
190.244	0.0871
190.629	0.1152
191.013	0.1005
191.397	0.1005
191.781	0.1312
192.165	0.1783
192.55	0.1985
192.934	0.2055
193.318	0.1924
193.702	0.2018
194.086	0.2028
194.47	0.2197
194.854	0.2124
195.238	0.2079
195.622	0.2001
196.006	0.2037
196.389	0.2126
196.773	0.2173
197.157	0.213
197.541	0.2121
197.924	0.2068
198.308	0.2117
198.692	0.2055
199.075	0.1991
199.459	0.1912
199.843	0.1922
200.226	0.1989
200.61	0.1981
200.993	0.1959
201.376	0.1893
201.76	0.188
202.143	0.1823
202.527	0.1803
202.91	0.1832
203.293	0.1892
203.676	0.193
204.059	0.191
204.443	0.1857
204.826	0.1827
205.209	0.1797
205.592	0.1778
205.975	0.1806
206.358	0.1789
206.741	0.1816
207.124	0.1784
207.507	0.1838
207.89	0.1826
208.273	0.1814
208.655	0.1753
209.038	0.1745
209.421	0.1736
209.804	0.172
210.186	0.1724
210.569	0.1718
210.951	0.1728
211.334	0.1711
211.717	0.1704
212.099	0.1681
212.482	0.1684
212.864	0.1691
213.246	0.1707
213.629	0.168
214.011	0.1651
214.393	0.1663
214.776	0.1652
215.158	0.1659
215.54	0.1632
215.922	0.164
216.305	0.1632
216.687	0.1617
217.069	0.1601
217.451	0.1592
217.833	0.1585
218.215	0.1573
218.597	0.154
218.979	0.1554
219.361	0.1528
219.742	0.1552
220.124	0.1527
220.506	0.1536
220.888	0.1528
221.27	0.1525
221.651	0.1532
222.033	0.1512
222.415	0.1494
222.796	0.1484
223.178	0.1495
223.559	0.1497
223.941	0.1483
224.322	0.1478
224.704	0.1479
225.085	0.1479
225.466	0.1446
225.848	0.1424
226.229	0.141
226.61	0.1409
226.992	0.1404
227.373	0.1404
227.754	0.1409
228.135	0.1423
228.516	0.1426
228.897	0.1408
229.278	0.1379
229.659	0.1366
230.04	0.1377
230.421	0.1382
230.802	0.1377
231.183	0.1374
231.564	0.1359
231.944	0.1349
232.325	0.1331
232.706	0.1323
233.087	0.1312
233.467	0.1302
233.848	0.1305
234.229	0.1302
234.609	0.1305
234.99	0.1303
235.37	0.1303
235.751	0.1302
236.131	0.1273
236.511	0.1255
236.892	0.1243
237.272	0.1257
237.652	0.1265
238.033	0.1259
238.413	0.1253
238.793	0.1249
239.173	0.1243
239.553	0.1231
239.933	0.1212
240.313	0.1201
240.694	0.1186
241.074	0.1198
241.453	0.1206
241.833	0.1219
242.213	0.1196
242.593	0.1171
242.973	0.1157
243.353	0.1166
243.732	0.1171
244.112	0.117
244.492	0.1153
244.872	0.1137
245.251	0.1138
245.631	0.114
246.01	0.1141
246.39	0.1135
246.769	0.1133
247.149	0.1131
247.528	0.1126
247.908	0.1122
248.287	0.1124
248.666	0.1114
249.045	0.1109
249.425	0.1108
249.804	0.1108
250.183	0.1101
250.562	0.1096
250.941	0.1089
251.32	0.1076
251.699	0.1073
252.078	0.1081
252.457	0.1085
252.836	0.1081
253.215	0.1076
253.594	0.1076
253.973	0.1071
254.352	0.1054
254.731	0.1056
255.109	0.1059
255.488	0.1061
255.867	0.1058
256.245	0.1039
256.624	0.1036
257.002	0.1035
257.381	0.1045
257.759	0.1053
258.138	0.1039
258.516	0.1038
258.895	0.1033
259.273	0.1034
259.651	0.1023
260.03	0.1012
260.408	0.1005
260.786	0.1005
261.164	0.1007
261.542	0.0994
261.921	0.0987
262.299	0.0975
262.677	0.0988
263.055	0.0978
263.433	0.0982
263.811	0.097
264.188	0.0988
264.566	0.098
264.944	0.0967
265.322	0.0939
265.7	0.0949
266.077	0.0962
266.455	0.0978
266.833	0.097
267.21	0.0955
267.588	0.0952
267.966	0.094
268.343	0.0928
268.721	0.0908
269.098	0.0897
269.475	0.091
269.853	0.0918
270.23	0.0917
270.607	0.091
270.985	0.0894
271.362	0.0874
271.739	0.0869
272.116	0.0881
272.494	0.0886
272.871	0.0882
273.248	0.0869
273.625	0.087
274.002	0.0868
274.379	0.0875
274.756	0.0862
275.132	0.0859
275.509	0.0851
275.886	0.0856
276.263	0.0854
276.64	0.0839
277.016	0.0833
277.393	0.0825
277.77	0.0819
278.146	0.0816
278.523	0.0809
278.899	0.08
279.276	0.0784
279.652	0.0782
280.029	0.0767
280.405	0.0774
280.782	0.0748
281.158	0.0768
281.534	0.0754
281.91	0.0765
282.287	0.0752
282.663	0.076
283.039	0.076
283.415	0.0767
283.791	0.0772
284.167	0.0763
284.543	0.0753
284.919	0.073
285.295	0.0721
285.671	0.0715
286.047	0.0724
286.423	0.0733
286.799	0.0735
287.174	0.073
287.55	0.0719
287.926	0.0703
288.301	0.0703
288.677	0.0714
289.053	0.0718
289.428	0.0704
289.804	0.0707
290.179	0.0701
290.555	0.0708
290.93	0.0683
291.305	0.0679
291.681	0.0667
292.056	0.0675
292.431	0.0696
292.806	0.0685
293.182	0.0671
293.557	0.0642
293.932	0.0642
294.307	0.0656
294.682	0.0655
295.057	0.0654
295.432	0.0632
295.807	0.0635
296.182	0.0627
296.557	0.0627
296.932	0.0627
297.306	0.0628
297.681	0.0618
298.056	0.0609
298.43	0.0608
298.805	0.0611
299.18	0.0611
299.554	0.0613
299.929	0.0611
300.303	0.062
300.678	0.06
301.052	0.0603
301.427	0.0598
301.801	0.0612
302.175	0.0602
302.55	0.0587
302.924	0.0575
303.298	0.0556
303.672	0.0549
304.046	0.0545
304.421	0.0561
304.795	0.0554
305.169	0.055
305.543	0.0546
305.917	0.0554
306.291	0.056
306.664	0.056
307.038	0.0543
307.412	0.0537
307.786	0.0532
308.16	0.0539
308.533	0.0528
308.907	0.053
309.281	0.0529
309.654	0.0535
310.028	0.0531
310.401	0.0534
310.775	0.0538
311.148	0.0508
311.522	0.0493
311.895	0.0475
312.268	0.0505
312.642	0.0508
313.015	0.0525
313.388	0.0511
313.761	0.0494
314.135	0.0486
314.508	0.0497
314.881	0.0522
315.254	0.0501
315.627	0.049
316	0.0482
316.373	0.0485
316.746	0.0478
317.118	0.0464
317.491	0.0466
317.864	0.0466
318.237	0.0469
318.61	0.0471
318.982	0.0463
319.355	0.0464
319.727	0.0456
320.1	0.0453
320.473	0.045
320.845	0.045
321.218	0.0452
321.59	0.0463
321.962	0.0473
322.335	0.0484
322.707	0.0463
323.079	0.046
323.452	0.0445
323.824	0.0447
324.196	0.0429
324.568	0.0425
324.94	0.0432
325.312	0.0437
325.684	0.0442
326.056	0.0426
326.428	0.0432
326.8	0.0422
327.172	0.0434
327.544	0.0428
327.915	0.0417
328.287	0.0407
328.659	0.0399
329.031	0.0394
329.402	0.0382
329.774	0.0384
330.145	0.038
330.517	0.039
330.888	0.0372
331.26	0.0388
331.631	0.0367
332.003	0.0382
332.374	0.038
332.745	0.0385
333.117	0.0352
333.488	0.0338
333.859	0.0347
334.23	0.0374
334.601	0.0392
334.972	0.0374
335.343	0.0369
335.714	0.0348
336.085	0.0349
336.456	0.0339
336.827	0.0347
337.198	0.0348
337.569	0.0346
337.94	0.034
338.31	0.0341
338.681	0.0346
339.052	0.0342
339.422	0.0327
339.793	0.0314
340.164	0.0301
340.534	0.0302
340.905	0.0295
341.275	0.0289
341.645	0.0302
342.016	0.0309
342.386	0.0318
342.756	0.0305
343.127	0.0306
343.497	0.0298
343.867	0.0289
344.237	0.0273
344.607	0.0289
344.977	0.0308
345.347	0.0319
345.717	0.0308
346.087	0.0282
346.457	0.0283
346.827	0.0263
347.197	0.0261
347.567	0.0261
347.936	0.0281
348.306	0.0295
348.676	0.0297
349.046	0.0283
349.415	0.0284
349.785	0.0279
350.154	0.0279
350.524	0.0292
350.893	0.0286
351.263	0.0304
351.632	0.0309
352.001	0.0296
352.371	0.0283
352.74	0.0263
353.109	0.0268
353.478	0.0268
353.847	0.0264
354.217	0.0275
354.586	0.026
354.955	0.024
355.324	0.0222
355.693	0.0225
356.062	0.0263
356.43	0.027
356.799	0.0267
357.168	0.0229
357.537	0.0216
357.906	0.0216
358.274	0.0222
358.643	0.0228
359.011	0.024
359.38	0.0261
359.749	0.0265
360.117	0.0244
360.486	0.021
360.854	0.0205
361.222	0.0205
361.591	0.0232
361.959	0.0223
362.327	0.0212
362.695	0.0203
363.064	0.02
363.432	0.0201
363.8	0.0199
364.168	0.0198
364.536	0.0213
364.904	0.0215
365.272	0.022
365.64	0.0218
366.008	0.0202
366.376	0.0185
366.743	0.0172
367.111	0.0172
367.479	0.0207
367.847	0.0208
368.214	0.0203
368.582	0.0182
368.949	0.0177
369.317	0.019
369.684	0.0171
370.052	0.0169
370.419	0.0164
370.787	0.0197
371.154	0.0191
371.521	0.0179
371.889	0.0169
372.256	0.0184
372.623	0.0185
372.99	0.018
373.357	0.0186
373.724	0.0178
374.091	0.0165
374.458	0.0161
374.825	0.0189
375.192	0.0187
375.559	0.0166
375.926	0.0159
376.293	0.0168
376.659	0.0171
377.026	0.015
377.393	0.0153
377.759	0.017
378.126	0.0172
378.492	0.0148
378.859	0.0137
379.225	0.0147
379.592	0.0159
379.958	0.0168
380.325	0.0152
380.691	0.0157
381.057	0.0127
381.423	0.0142
381.79	0.0119
382.156	0.0148
382.522	0.0145
382.888	0.0164
383.254	0.0138
383.62	0.0123
383.986	0.0112
384.352	0.0125
384.718	0.012
385.084	0.0124
385.449	0.0137
385.815	0.0151
386.181	0.0154
386.547	0.0146
386.912	0.0134
387.278	0.0115
387.643	0.0083
388.009	0.0083
388.374	0.0094
388.74	0.0134
389.105	0.0155
389.471	0.0163
389.836	0.0128
390.201	0.0117
390.566	0.0122
390.932	0.0148
391.297	0.0148
391.662	0.013
392.027	0.0123
392.392	0.0109
392.757	0.0115
393.122	0.0109
393.487	0.0133
393.852	0.0119
394.217	0.0114
394.582	0.0098
394.946	0.011
395.311	0.0119
395.676	0.0123
396.04	0.0109
396.405	0.0096
396.77	0.009
397.134	0.0099
397.499	0.0103
397.863	0.0097
398.227	0.0089
398.592	0.0109
398.956	0.0106
399.32	0.013
399.685	0.0113
400.049	0.0105
400.413	0.0092
400.777	0.009
401.141	0.0102
401.505	0.0098
401.869	0.0097
402.233	0.0091
402.597	0.008
402.961	0.0069
403.325	0.0046
403.689	0.0065
404.053	0.009
404.416	0.0109
404.78	0.0099
405.144	0.0069
405.507	0.0051
405.871	0.0022
406.234	0.0033
406.598	0.0069
406.961	0.0098
407.325	0.008
407.688	0.0051
408.051	0.0056
408.415	0.0068
408.778	0.0083
409.141	0.0069
409.504	0.0083
409.867	0.0078
410.23	0.0091
410.593	0.0086
410.956	0.0078
411.319	0.0083
411.682	0.0078
412.045	0.0073
412.408	0.0078
412.771	0.0075
413.134	0.0107
413.496	0.0102
413.859	0.0107
414.222	0.0096
414.584	0.0099
414.947	0.0098
415.309	0.0079
415.672	0.0061
416.034	0.0065
416.396	0.0065
416.759	0.0079
417.121	0.0076
417.483	0.0097
417.846	0.0086
418.208	0.009
418.57	0.0073
418.932	0.0065
419.294	0.0032
419.656	0.005
420.018	0.0064
420.38	0.0077
420.742	0.0053
421.104	0.0031
421.466	0.0053
421.827	0.0073
422.189	0.0079
422.551	0.0074
422.912	0.0075
423.274	0.0104
423.636	0.0081
423.997	0.0048
424.359	0.0035
424.72	0.0046
425.081	0.0051
425.443	0.0038
425.804	0.0039
426.165	0.0053
426.527	0.0054
426.888	0.0047
427.249	0.0059
427.61	0.0069
427.971	0.0069
428.332	0.0039
428.693	0.0041
429.054	0.0046
429.415	0.0061
429.776	0.0054
430.137	0.0046
430.498	0.005
430.858	0.0036
431.219	0.0055
431.58	0.0066
431.94	0.0086
432.301	0.0078
432.661	0.0066
433.022	0.0041
433.382	0.0009
433.743	-0.0004
434.103	0.0034
434.463	0.0072
434.824	0.007
435.184	0.0053
435.544	0.0048
435.904	0.0052
436.264	0.0052
436.624	0.0054
436.985	0.006
437.345	0.0065
437.704	0.0065
438.064	0.0076
438.424	0.0074
438.784	0.005
439.144	0.0046
439.504	0.0053
439.863	0.0057
440.223	0.0069
440.583	0.0041
440.942	0.0052
441.302	0.0043
441.661	0.006
442.021	0.0046
442.38	0.0045
442.739	0.004
443.099	0.0073
443.458	0.0067
443.817	0.0058
444.176	0.0037
444.536	0.0029
444.895	0.0017
445.254	0.0017
445.613	0.0029
445.972	0.0042
446.331	0.0028
446.69	0.002
447.049	0.003
447.407	0.0044
447.766	0.0066
448.125	0.0087
448.484	0.0087
448.842	0.0073
449.201	0.0048
449.559	0.0021
449.918	0.0018
450.276	0.0011
450.635	0.0019
450.993	-0.0009
451.352	-0.001
451.71	0.0016
452.068	0.0035
452.426	0.0044
452.785	0.002
453.143	0.0044
453.501	0.0041
453.859	0.0051
454.217	0.0035
454.575	0.0013
454.933	0.0004
455.291	0.0012
455.649	0.0024
456.006	0.0049
456.364	0.0027
456.722	0.0056
457.079	0.0038
457.437	0.0049
457.795	0.0017
458.152	0.0029
458.51	0.0009
458.867	0.0033
459.225	0.002
459.582	0.0056
459.939	0.004
460.297	0.0036
460.654	0.0012
461.011	0.0008
461.368	0.002
461.725	0.0027
462.082	0.0039
462.44	0.0052
462.797	0.0055
463.153	0.0044
463.51	0.0033
463.867	0.0017
464.224	-0.0004
464.581	-0.0013
464.938	-0.0021
465.294	-0.0004
465.651	-0.0007
466.008	0.0002
466.364	-0.0008
466.721	0.0013
467.077	0.0037
467.434	0.0049
467.79	0.0029
468.146	0.0008
468.503	0.0013
468.859	0.0001
469.215	0.0017
469.571	0.0027
469.927	0.0079
470.284	0.0065
470.64	0.0052
470.996	0.0037
471.352	0.003
471.707	0.0012
472.063	0.0004
472.419	0.0008
472.775	0.0046
473.131	0.0014
473.486	0.0015
473.842	0.0006
474.198	0.0031
474.553	0.0038
474.909	0.0019
475.264	0.001
475.62	0.003
475.975	0.004
476.331	0.0049
476.686	0.0015
477.041	-0.0002
477.396	0.0013
477.752	0.0011
478.107	0.002
478.462	-0.001
478.817	0.0021
479.172	0.0032
479.527	0.0059
479.882	0.0049
480.237	0.0044
480.591	0.0025
480.946	0.0037
481.301	0.0021
481.656	0.0023
482.01	0.0007
482.365	0.0021
482.72	0.0025
483.074	0.0024
483.429	0.0001
483.783	-0
484.137	-0.0023
484.492	-0.0009
484.846	-0.0011
485.2	0.0021
485.555	0.0041
485.909	0.0034
486.263	0.0008
486.617	-0.0012
486.971	-0.0002
487.325	0.0011
487.679	0.0023
488.033	0.002
488.387	-0.0007
488.741	-0.0024
489.094	-0.0028
489.448	-0.0003
489.802	0.0018
490.156	-0.0007
490.509	-0.0006
490.863	-0.0024
491.216	0.0005
491.57	-0.0004
491.923	0.0011
492.277	0.0004
492.63	-0
492.983	-0.0017
493.337	-0.0004
493.69	0.0003
494.043	0.001
494.396	0.0002
494.749	-0.001
495.102	0.0001
495.455	-0.0005
495.808	-0.0023
496.161	-0.0053
496.514	-0.0036
496.867	-0.0009
497.22	0.0014
497.572	-0.0018
497.925	-0.0017
498.278	-0.0022
498.63	-0.0016
498.983	-0.0011
499.335	-0.0002
499.688	0.0028
500.04	0.0045
500.393	0.0027
500.745	0.0004
501.097	-0.0024
501.449	-0.0019
501.802	0.0004
502.154	0.0018
502.506	0.0014
502.858	-0.0021
503.21	-0.0043
503.562	-0.0019
503.914	0.0015
504.266	0.0011
504.618	0.0011
504.969	0.0014
505.321	0.0015
505.673	-0.0025
506.025	-0.0012
506.376	0.0018
506.728	0.003
507.079	0.0008
507.431	-0.0002
507.782	-0.0003
508.134	-0.0008
508.485	-0.0018
508.836	0.0002
509.188	0.0009
509.539	0.0025
509.89	0
510.241	-0.0016
510.592	-0.0034
510.943	-0.0034
511.294	-0.0007
511.645	0.0004
511.996	0.0049
512.347	0.0031
512.698	0.0035
513.049	-0.0013
513.399	-0.0002
513.75	-0.0021
514.101	-0.0016
514.451	-0.0023
514.802	-0.0021
515.152	0.0006
515.503	-0.0016
515.853	0.0004
516.203	-0.0024
516.554	-0.0018
516.904	-0.0011
517.254	-0.0016
517.604	-0.0017
517.955	-0.0065
518.305	-0.0042
518.655	-0.0018
519.005	-0.0005
519.355	-0.0024
519.705	-0.0051
520.055	-0.0037
520.404	-0.0033
520.754	-0.0013
521.104	-0.0016
521.454	-0.0003
521.803	-0.0011
522.153	0.0003
522.502	-0.001
522.852	-0.0008
523.201	-0.0026
523.551	-0.0038
523.9	-0.0026
524.249	-0.0015
524.599	-0.0011
524.948	-0.005
525.297	-0.0055
525.646	-0.0035
525.995	-0.0009
526.344	-0.0004
526.694	-0.0006
527.042	-0.0016
527.391	-0.0051
527.74	-0.0063
528.089	-0.0084
528.438	-0.0067
528.787	-0.0058
529.135	-0.0048
529.484	-0.0029
529.833	-0.0024
530.181	-0.0013
530.53	-0.0037
530.878	-0.0041
531.227	-0.0025
531.575	-0.0006
531.923	-0.0011
532.271	0
532.62	-0.0015
532.968	-0.0013
533.316	-0.0038
533.664	-0.0005
534.012	-0.0024
534.36	-0.0013
534.708	-0.0062
535.056	-0.0059
535.404	-0.0046
535.752	0.0005
536.1	0.0016
536.447	0.0009
536.795	-0.0002
537.143	-0.0008
537.49	-0.0007
537.838	-0.0013
538.185	-0.002
538.533	-0.0043
538.88	-0.0044
539.228	-0.0057
539.575	-0.0032
539.922	-0.0029
540.269	0.0011
540.617	-0.0004
540.964	0.0024
541.311	-0.0008
541.658	-0.0006
542.005	-0.0041
542.352	-0.0031
542.699	-0.0027
543.045	-0.0041
543.392	-0.0047
543.739	-0.007
544.086	-0.0069
544.432	-0.0048
544.779	-0.0017
545.126	-0.0004
545.472	0.0018
545.819	0.0019
546.165	0.0033
546.512	-0.0024
546.858	-0.0046
547.204	-0.0079
547.55	-0.0031
547.897	-0.0002
548.243	0.0007
548.589	0.0001
548.935	-0.003
549.281	-0.0028
549.627	-0.0042
549.973	-0.0031
550.319	-0.0022
550.665	-0.0009
551.01	-0.0002
551.356	-0.0007
551.702	-0.0016
552.048	-0.0007
552.393	0.0008
552.739	-0.0006
553.084	-0.0018
553.43	-0.0041
553.775	-0.0007
554.12	-0.0011
554.466	-0.0013
554.811	-0.0039
555.156	-0.0024
555.502	-0.0033
555.847	-0.0023
556.192	-0.0045
556.537	-0.0023
556.882	-0.0053
557.227	-0.0048
557.572	-0.0057
557.917	-0.0013
558.261	-0.0012
558.606	-0.0019
558.951	-0.0037
559.295	-0.0033
559.64	-0.0039
559.985	-0.0067
560.329	-0.0085
560.674	-0.0071
561.018	-0.0072
561.363	-0.0067
561.707	-0.0059
562.051	-0.0056
562.395	-0.0063
562.74	-0.0045
563.084	-0.0028
563.428	-0.0006
563.772	-0.0023
564.116	-0.0018
564.46	0.0005
564.804	0.0018
565.148	0.0037
565.492	0.0005
565.835	0.0026
566.179	0.0023
566.523	0.0015
566.866	-0.0049
567.21	-0.0087
567.554	-0.0095
567.897	-0.004
568.24	-0.0029
568.584	-0.0046
568.927	-0.0066
569.271	-0.0051
569.614	-0.004
569.957	-0.0034
570.3	-0.005
570.643	-0.0028
570.986	-0.002
571.329	-0.0025
571.672	0
572.015	-0.0014
572.358	-0.0014
572.701	-0.0038
573.044	-0.0054
573.387	-0.0032
573.729	-0.0024
574.072	-0.0005
574.414	-0.0014
574.757	-0.0024
575.099	-0.0035
575.442	-0.004
575.784	-0.0026
576.127	-0.0027
576.469	-0.0034
576.811	-0.0039
577.153	-0.0022
577.496	-0.0021
577.838	-0.0023
578.18	-0.0054
578.522	-0.0058
578.864	-0.0104
579.206	-0.0053
579.548	-0.0047
579.889	-0.0028
580.231	-0.0018
580.573	-0.0012
580.915	-0.0015
581.256	-0.0054
581.598	-0.007
581.939	-0.0067
582.281	-0.0034
582.622	-0.0023
582.964	-0.0022
583.305	-0.0046
583.646	-0.0059
583.988	-0.0042
584.329	-0.0045
584.67	-0.005
585.011	-0.0074
585.352	-0.0076
585.693	-0.005
586.034	-0.0049
586.375	-0.0061
586.716	-0.0075
587.057	-0.0043
587.398	-0.0013
587.738	-0.0007
588.079	-0.0019
588.42	-0.0015
588.76	-0.003
589.101	-0.0021
589.441	-0.0019
589.782	-0.0026
590.122	-0.0032
590.463	-0.0035
590.803	-0.0034
591.143	-0.0046
591.483	-0.0075
591.823	-0.0069
592.164	-0.0069
592.504	-0.0065
592.844	-0.0077
593.184	-0.0065
593.523	-0.0052
593.863	-0.004
594.203	-0.0045
594.543	-0.0029
594.883	-0.0042
595.222	-0.0026
595.562	-0.0011
595.901	-0.0011
596.241	-0.0021
596.58	-0.0041
596.92	-0.0035
597.259	-0.0056
597.599	-0.0067
597.938	-0.0053
598.277	-0.0054
598.616	-0.0055
598.955	-0.0085
599.295	-0.008
599.634	-0.0061
599.973	-0.0041
600.312	-0.0005
600.65	-0.0012
600.989	-0.0016
601.328	-0.0023
601.667	-0.0025
602.005	-0.007
602.344	-0.0089
602.683	-0.0079
603.021	-0.0048
603.36	-0.003
603.698	-0.0055
604.037	-0.0049
604.375	-0.0063
604.713	-0.0051
605.052	-0.0039
605.39	-0.0026
605.728	-0.0038
606.066	-0.0046
606.404	-0.0064
606.742	-0.0064
607.08	-0.0046
607.418	-0.0049
607.756	-0.0033
608.094	-0.0046
608.431	-0.005
608.769	-0.0033
609.107	-0.0047
609.444	-0.0019
609.782	-0.0031
610.12	-0.0022
610.457	-0.0054
610.794	-0.0069
611.132	-0.0087
611.469	-0.0101
611.806	-0.01
612.144	-0.0107
612.481	-0.0061
612.818	-0.0058
613.155	-0.0022
613.492	-0.0033
613.829	0.0002
614.166	-0.0008
614.503	-0.0019
614.84	-0.0062
615.176	-0.0056
615.513	-0.0026
615.85	0.0001
616.187	-0.0001
616.523	-0.0032
616.86	-0.0039
617.196	-0.0042
617.533	-0.0008
617.869	-0.0022
618.205	-0.0033
618.542	-0.0061
618.878	-0.0085
619.214	-0.0072
619.55	-0.008
619.886	-0.0065
620.222	-0.0093
620.558	-0.0081
620.894	-0.0085
621.23	-0.009
621.566	-0.0088
621.902	-0.0095
622.238	-0.0077
622.573	-0.0105
622.909	-0.0098
623.244	-0.0111
623.58	-0.0109
623.916	-0.0105
624.251	-0.0113
624.586	-0.008
624.922	-0.0079
625.257	-0.0093
625.592	-0.0068
625.927	-0.0058
626.263	-0.0017
626.598	-0.0045
626.933	-0.0057
627.268	-0.0043
627.603	-0.0067
627.938	-0.0095
628.272	-0.0113
628.607	-0.0107
628.942	-0.0087
629.277	-0.0108
629.611	-0.0125
629.946	-0.0107
630.281	-0.0077
630.615	-0.0041
630.949	-0.0036
631.284	-0.0021
631.618	-0.0049
631.953	-0.0063
632.287	-0.01
632.621	-0.0088
632.955	-0.0081
633.289	-0.0061
633.623	-0.0052
633.957	-0.0009
634.291	-0.0037
634.625	-0.0022
634.959	-0.0107
635.293	-0.0126
635.627	-0.0117
635.96	-0.0068
636.294	-0.0033
636.627	-0.0047
636.961	-0.0003
637.294	-0.0012
637.628	-0.0024
637.961	-0.0086
638.295	-0.007
638.628	-0.0065
638.961	-0.0068
639.294	-0.0088
639.628	-0.0123
639.961	-0.0142
640.294	-0.0149
640.627	-0.0119
640.96	-0.0107
641.293	-0.0053
641.625	-0.0058
641.958	-0.0016
642.291	-0.0074
642.624	-0.0054
642.956	-0.0052
643.289	0.0019
643.621	-0.0031
643.954	-0.009
644.286	-0.0109
644.619	-0.0048
644.951	0.0006
645.283	-0.0003
645.616	-0.0061
645.948	-0.0083
646.28	-0.0078
646.612	-0.0051
646.944	-0.0046
647.276	-0.0081
647.608	-0.0124
647.94	-0.0119
648.272	-0.0117
648.603	-0.0077
648.935	-0.0089
649.267	-0.004
649.598	-0.0039
649.93	-0.0054
650.261	-0.0099
650.593	-0.0129
650.924	-0.0079
651.256	-0.0079
651.587	-0.0086
651.918	-0.009
652.25	-0.0099
652.581	-0.0061
652.912	-0.0062
653.243	-0.0079
653.574	-0.0081
653.905	-0.0091
654.236	-0.006
654.567	-0.0088
654.897	-0.0086
655.228	-0.0064
655.559	-0
655.89	0.0007
656.22	-0.001
656.551	-0.009
656.881	-0.0108
657.212	-0.0124
657.542	-0.0099
657.872	-0.0072
658.203	-0.0063
658.533	0.0059
658.863	0.0035
659.193	-0.002
659.523	-0.0058
659.853	-0.0119
660.183	-0.0078
660.513	-0.0085
660.843	-0.0091
661.173	-0.0085
661.503	-0.0067
661.833	-0.0108
662.162	-0.0126
662.492	-0.0117
662.822	-0.0123
663.151	-0.01
663.481	-0.0107
663.81	-0.0086
664.139	-0.0065
664.469	-0.002
664.798	0.0023
665.127	-0.0006
665.456	-0.0043
665.785	-0.0058
666.114	-0.0069
666.443	-0.0094
666.772	-0.0106
667.101	-0.011
667.43	-0.0117
667.759	-0.0073
668.088	-0.0059
668.416	-0.0059
668.745	-0.0092
669.074	-0.0079
669.402	-0.0055
669.731	-0.0051
670.059	-0.0092
670.388	-0.009
670.716	-0.0078
671.044	-0.0054
671.372	-0.0064
671.701	-0.0067
672.029	-0.0057
672.357	-0.0066
672.685	-0.0047
673.013	-0.0045
673.341	-0.0022
673.669	-0.0068
673.996	-0.0059
674.324	-0.0034
674.652	-0.0013
674.98	-0.0031
675.307	-0.0059
675.635	-0.0075
675.962	-0.0085
676.29	-0.009
676.617	-0.01
676.945	-0.0105
677.272	-0.0128
677.599	-0.0115
677.926	-0.0104
678.253	-0.0066
678.581	-0.0093
678.908	-0.008
679.235	-0.0099
679.561	-0.0116
679.888	-0.0137
680.215	-0.0117
680.542	-0.014
680.869	-0.0127
681.195	-0.0173
681.522	-0.0108
681.849	-0.0134
682.175	-0.0134
682.502	-0.0118
682.828	-0.0095
683.154	-0.0034
683.481	-0.0066
683.807	-0.0035
684.133	-0.0098
684.459	-0.013
684.785	-0.0147
685.111	-0.0126
685.437	-0.0113
685.763	-0.0136
686.089	-0.0136
686.415	-0.0103
686.741	-0.0069
687.067	-0.0051
687.392	-0.007
687.718	-0.0082
688.043	-0.0072
688.369	-0.0038
688.694	-0.0035
689.02	-0.0064
689.345	-0.0123
689.67	-0.0128
689.996	-0.0124
690.321	-0.007
690.646	-0.0053
690.971	-0.0037
691.296	-0.0054
691.621	-0.0075
691.946	-0.0126
692.271	-0.0131
692.596	-0.0124
692.921	-0.0071
693.245	-0.0038
693.57	-0.0062
693.895	-0.0079
694.219	-0.0084
694.544	-0.0034
694.868	-0.004
695.193	-0.0072
695.517	-0.0102
695.841	-0.0083
696.166	-0.0049
696.49	-0.0031
696.814	-0.004
697.138	-0.0032
697.462	-0.0027
697.786	-0.0029
698.11	-0.0023
698.434	-0.0076
698.758	-0.0122
699.081	-0.0166
699.405	-0.0129
699.729	-0.0065
700.052	-0.0063
700.376	-0.0119
700.7	-0.0151
701.023	-0.0151
701.346	-0.0107
701.67	-0.0082
701.993	-0.0087
702.316	-0.0097
702.639	-0.0071
702.963	-0.0123
703.286	-0.0136
703.609	-0.0126
703.932	-0.0068
704.255	-0.0073
704.578	-0.0128
704.9	-0.0122
705.223	-0.0052
705.546	-0.0037
705.868	-0.0035
706.191	-0.0081
706.514	-0.012
706.836	-0.011
707.159	-0.0064
707.481	-0.0039
707.803	-0.0072
708.126	-0.0118
708.448	-0.0113
708.77	-0.0061
709.092	-0.0057
709.414	-0.0043
709.736	-0.0111
710.058	-0.011
710.38	-0.0072
710.702	-0.0087
711.024	-0.0094
711.345	-0.0139
711.667	-0.0089
711.989	-0.0091
712.31	-0.0089
712.632	-0.0134
712.953	-0.0101
713.275	-0.0078
713.596	-0.0029
713.917	-0.0047
714.239	-0.0078
714.56	-0.0121
714.881	-0.0153
715.202	-0.0137
715.523	-0.0105
715.844	-0.0071
716.165	-0.0078
716.486	-0.0068
716.807	-0.0108
717.128	-0.0084
717.448	-0.0093
717.769	-0.0082
718.09	-0.0113
718.41	-0.0131
718.731	-0.0114
719.051	-0.0131
719.372	-0.0139
719.692	-0.0128
720.012	-0.009
720.332	-0.0067
720.653	-0.0068
720.973	-0.0117
721.293	-0.0138
721.613	-0.0161
721.933	-0.014
722.253	-0.0108
722.573	-0.0067
722.892	-0.0072
723.212	-0.0069
723.532	-0.0101
723.851	-0.0148
724.171	-0.0149
724.491	-0.0156
724.81	-0.0104
725.129	-0.0113
725.449	-0.0116
725.768	-0.0095
726.087	-0.011
726.407	-0.0125
726.726	-0.0121
727.045	-0.0141
727.364	-0.0126
727.683	-0.0129
728.002	-0.0087
728.321	-0.0073
728.64	-0.0081
728.958	-0.0093
729.277	-0.0075
729.596	-0.0081
729.914	-0.0106
730.233	-0.0132
730.551	-0.0135
730.87	-0.0109
731.188	-0.0125
731.507	-0.012
731.825	-0.01
732.143	-0.0072
732.461	-0.0108
732.779	-0.011
733.097	-0.0104
733.415	-0.009
733.733	-0.0119
734.051	-0.013
734.369	-0.0106
734.687	-0.0089
735.005	-0.0083
735.322	-0.0067
735.64	-0.0012
735.957	-0.0004
736.275	-0.0007
736.592	-0.006
736.91	-0.0094
737.227	-0.0102
737.544	-0.0095
737.862	-0.0086
738.179	-0.0118
738.496	-0.0108
738.813	-0.0109
739.13	-0.0074
739.447	-0.0142
739.764	-0.011
740.081	-0.0131
740.398	-0.0104
740.714	-0.0151
741.031	-0.0145
741.348	-0.0134
741.664	-0.0076
741.981	-0.0054
742.297	-0.0041
742.614	-0.0054
742.93	-0.0095
743.246	-0.0122
743.563	-0.0228
743.879	-0.022
744.195	-0.0231
744.511	-0.0151
744.827	-0.0127
745.143	-0.0093
745.459	-0.005
745.775	-0.0078
746.091	-0.0116
746.406	-0.0179
746.722	-0.0177
747.038	-0.0142
747.353	-0.0114
747.669	-0.0121
747.984	-0.0136
748.3	-0.0099
748.615	-0.0067
748.93	-0.0029
749.246	-0.0099
749.561	-0.0124
749.876	-0.0185
750.191	-0.0152
750.506	-0.015
750.821	-0.0142
751.136	-0.0171
751.451	-0.0149
751.766	-0.0113
752.08	-0.0109
752.395	-0.0119
752.71	-0.0099
753.024	-0.0029
753.339	-0.0009
753.653	-0.0046
753.968	-0.0067
754.282	-0.0082
754.596	-0.0039
754.911	-0.0058
755.225	-0.0026
755.539	-0.0079
755.853	-0.0086
756.167	-0.0132
756.481	-0.0132
756.795	-0.0168
757.109	-0.0156
757.423	-0.0094
757.736	-0.0057
758.05	-0.0071
758.364	-0.0109
758.677	-0.0088
758.991	-0.0066
759.304	-0.0065
759.618	-0.0085
759.931	-0.0116
760.244	-0.0126
760.558	-0.0123
760.871	-0.0101
761.184	-0.0104
761.497	-0.011
761.81	-0.0111
762.123	-0.0083
762.436	-0.0067
762.749	-0.0063
763.062	-0.0109
763.374	-0.0127
763.687	-0.0141
764	-0.0111
764.312	-0.0106
764.625	-0.0122
764.937	-0.0121
765.25	-0.0141
765.562	-0.0081
765.874	-0.0079
766.186	-0.0036
766.499	-0.0056
766.811	-0.004
767.123	-0.0035
767.435	-0.005
767.747	-0.0058
768.059	-0.0084
768.37	-0.0073
768.682	-0.0123
768.994	-0.014
769.306	-0.0184
769.617	-0.0151
769.929	-0.0102
770.24	-0.0086
770.552	-0.0073
770.863	-0.0061
771.174	-0.0087
771.486	-0.0049
771.797	-0.0105
772.108	-0.0075
772.419	-0.007
772.73	-0.0038
773.041	-0.0101
773.352	-0.0152
773.663	-0.0168
773.974	-0.011
774.285	-0.0157
774.595	-0.0136
774.906	-0.0148
775.217	-0.0092
775.527	-0.0121
775.838	-0.01
776.148	-0.0117
776.458	-0.0071
776.769	-0.0072
777.079	-0.0059
777.389	-0.0084
777.699	-0.0071
778.009	-0.0057
778.319	-0.0043
778.629	-0.0069
778.939	-0.0119
779.249	-0.0122
779.559	-0.0109
779.869	-0.0111
780.178	-0.0135
780.488	-0.0189
780.798	-0.0147
781.107	-0.0115
781.417	-0.0074
781.726	-0.0073
782.035	-0.0153
782.345	-0.0144
782.654	-0.0141
782.963	-0.0104
783.272	-0.0125
783.581	-0.0114
783.89	-0.0147
784.199	-0.0131
784.508	-0.0128
784.817	-0.0087
785.126	-0.0086
785.434	-0.0072
785.743	-0.0124
786.052	-0.0097
786.36	-0.0115
786.669	-0.001
786.977	-0.0007
787.285	-0.0015
787.594	-0.0102
787.902	-0.0124
788.21	-0.0143
788.518	-0.0081
788.826	-0.0077
789.135	-0.006
789.442	-0.0087
789.75	-0.0104
790.058	-0.0092
790.366	-0.0147
790.674	-0.0139
790.981	-0.0135
791.289	-0.0123
791.597	-0.0112
791.904	-0.0138
792.212	-0.0114
792.519	-0.016
792.826	-0.0157
793.134	-0.0087
793.441	-0.0068
793.748	-0.0087
794.055	-0.0119
794.362	-0.0117
794.669	-0.012
794.976	-0.0129
795.283	-0.0086
795.59	-0.0019
795.897	-0.0057
796.203	-0.0034
796.51	-0.0019
796.817	-0.0038
797.123	-0.0117
797.43	-0.0176
797.736	-0.0152
798.042	-0.0121
798.349	-0.0143
798.655	-0.0117
798.961	-0.0157
799.267	-0.0076
799.573	-0.0159
799.879	-0.0055
800.185	-0.0053
800.491	-0.0021
800.797	-0.0154
801.103	-0.0205
801.408	-0.0225
801.714	-0.0172
802.02	-0.0157
802.325	-0.0103
802.631	-0.0106
802.936	-0.0131
803.242	-0.0183
803.547	-0.013
803.852	-0.0094
804.157	-0.0128
804.462	-0.011
804.768	-0.0066
805.073	-0.0017
805.378	-0.0069
805.682	-0.0136
805.987	-0.0159
806.292	-0.0148
806.597	-0.0115
806.902	-0.0079
807.206	-0.0078
807.511	-0.0153
807.815	-0.0124
808.12	-0.0088
808.424	0.0013
808.728	-0.0065
809.033	-0.0068
809.337	-0.0153
809.641	-0.0142
809.945	-0.0184
810.249	-0.0153
810.553	-0.0056
810.857	-0.0038
811.161	0.0001
811.465	-0.004
811.768	-0.0161
812.072	-0.0187
812.376	-0.0207
812.679	-0.0066
812.983	-0.0062
813.286	-0.0138
813.59	-0.0187
813.893	-0.022
814.196	-0.0144
814.499	-0.0164
814.803	-0.0172
815.106	-0.0121
815.409	-0.0066
815.712	-0.0027
816.015	-0.0142
816.318	-0.0237
816.62	-0.0181
816.923	-0.013
817.226	-0.0067
817.528	-0.0077
817.831	-0.0114
818.133	-0.0114
818.436	-0.0156
818.738	-0.0154
819.041	-0.0063
819.343	-0.0009
819.645	0.0006
819.947	-0.0016
820.249	-0.0044
820.551	-0.0041
820.853	-0.0063
821.155	-0.0169
821.457	-0.0194
821.759	-0.0165
822.061	-0.0086
822.362	-0.0012
822.664	-0.0069
822.966	-0.0136
823.267	-0.0173
823.569	-0.0204
823.87	-0.0187
824.171	-0.0215
824.473	-0.0224
824.774	-0.0245
825.075	-0.0153
825.376	-0.012
825.677	-0.004
825.978	-0.0062
826.279	0.001
826.58	-0.0047
826.881	-0.016
827.181	-0.0215
827.482	-0.0129
827.783	-0.007
828.083	-0.0092
828.384	-0.0211
828.684	-0.016
828.985	-0.0239
829.285	-0.0157
829.585	-0.0247
829.885	-0.0053
830.185	-0.0037
830.486	0.0041
830.786	-0.0022
831.086	-0.009
831.385	-0.0137
831.685	-0.0215
831.985	-0.0194
832.285	-0.0177
832.585	-0.0112
832.884	-0.0076
833.184	-0.0177
833.483	-0.0179
833.783	-0.016
834.082	-0.0057
834.381	-0.0041
834.681	-0.0037
834.98	0.001
835.279	-0.0067
835.578	-0.0132
835.877	-0.0214
836.176	-0.0238
836.475	-0.0193
836.774	-0.0262
837.072	-0.0226
837.371	-0.0321
837.67	-0.0256
837.968	-0.023
838.267	-0.0138
838.565	-0.0138
838.864	-0.0136
839.162	-0.0258
839.46	-0.0177
839.759	-0.0185
840.057	-0.0191
840.355	-0.0156
840.653	-0.0152
840.951	-0.0114
841.249	-0.02
841.547	-0.0273
841.845	-0.0211
842.142	-0.0242
842.44	-0.0215
842.738	-0.0241
843.035	-0.0247
843.333	-0.029
843.63	-0.0236
843.928	-0.0236
844.225	-0.0122
844.522	-0.0134
844.82	-0.0158
845.117	-0.0259
845.414	-0.0285
845.711	-0.033
846.008	-0.0361
846.305	-0.0354
846.602	-0.0278
846.898	-0.0126
847.195	-0.0221
847.492	-0.0228
847.788	-0.0229
848.085	-0.0165
848.382	-0.0161
848.678	-0.0293
848.974	-0.0083
849.271	-0.0031
849.567	-0.0111
849.863	-0.0216
850.159	-0.0184
850.455	-0.0043
850.751	-0.0125
851.047	-0.0207
851.343	-0.0172
851.639	-0.0193
851.935	-0.0197
852.23	-0.0282
852.526	-0.0271
852.822	-0.0172
853.117	-0.0073
853.413	-0.0082
853.708	-0.02
854.003	-0.0326
854.299	-0.0181
854.594	-0.0285
854.889	-0.0271
855.184	-0.0353
855.479	-0.022
855.774	-0.0274
856.069	-0.02
856.364	-0.0299
856.659	-0.0342
856.954	-0.0483
857.248	-0.0344
857.543	-0.0195
857.837	-0.0164
858.132	-0.0098
858.426	-0.0086
858.721	0.0056
859.015	-0.0076
859.309	-0.0015
859.604	-0.0206
859.898	-0.0045
860.192	0.0006
860.486	0.0186
860.78	0.0059
861.074	-0.0026
861.367	-0.0102
861.661	-0.0051
861.955	-0.0016
862.248	0.0142
862.542	0.0078
862.836	-0.0038
863.129	-0.0054
863.422	0.0014
863.716	-0.0038
864.009	-0.0146
864.302	-0.0296
864.595	-0.0238
864.889	-0.0325
865.182	-0.0237
865.475	-0.0248
865.767	-0.0382
866.06	-0.0485
866.353	-0.0471
866.646	-0.0567
866.938	-0.0386
867.231	-0.0139
867.524	0.0111
867.816	-0.0014
868.109	-0.0317
868.401	-0.0325
868.693	-0.0176
868.985	0.005
869.278	0.0084
869.57	0.0012
869.862	-0.0323
870.154	-0.0436
870.446	-0.0403
870.738	-0.0271
871.029	-0.0166
871.321	-0.0261
871.613	-0.0129
871.904	-0.0262
872.196	-0.0292
872.487	-0.0306
872.779	-0.0026
873.07	0.0107
873.362	-0.0107
873.653	-0.0415
873.944	-0.0428
874.235	-0.0346
874.526	-0.0051
874.817	0.0014
875.108	0.0123
875.399	-0.0137
875.69	-0.0339
875.981	-0.0466
876.271	-0.0428
876.562	-0.0362
876.853	-0.0092
877.143	-0.023
877.434	-0.0417
877.724	-0.0822
878.014	-0.0667
878.305	-0.0456
878.595	-0.0371
878.885	-0.0246
879.175	-0.0162
879.465	0.0093
879.755	0.0048
880.045	-0.0022
880.335	-0.0162
880.624	-0.0058
880.914	-0.0058
