Data from 24SS06LI_072017_1a_Absorbance_17-33-26-650.txt Node
Date: Fri Jul 28 17:33:26 MDT 2017
User: Tank Lab
Spectrometer: FLMS01220
Trigger mode: 0
Integration Time (sec): 1.000000E-1
Scans to average: 10
Electric dark correction enabled: true
Nonlinearity correction enabled: false
Boxcar width: 1
XAxis mode: Wavelengths
Number of Pixels in Spectrum: 2048
>>>>>Begin Spectral Data<<<<<
179.47	-0
179.856	-0
180.241	-0
180.626	-0
181.011	0.5112
181.396	-0.0149
181.781	-0
182.166	-0
182.551	-0
182.936	-0
183.321	-0
183.706	0.4021
184.091	-0.5404
184.476	-0.5672
184.86	-0
185.245	-0.7345
185.63	0.2008
186.015	0.1092
186.399	0.5634
186.784	-0
187.169	-0
187.553	-0
187.938	-0
188.322	-0.0896
188.707	-0.0261
189.091	0.0433
189.475	0.0637
189.86	0.0835
190.244	0.0881
190.629	0.1099
191.013	0.1574
191.397	0.2349
191.781	0.3034
192.165	0.3408
192.55	0.3744
192.934	0.4069
193.318	0.4112
193.702	0.4042
194.086	0.3951
194.47	0.4154
194.854	0.426
195.238	0.4272
195.622	0.412
196.006	0.3998
196.389	0.3903
196.773	0.3835
197.157	0.3826
197.541	0.3871
197.924	0.3778
198.308	0.371
198.692	0.3503
199.075	0.3438
199.459	0.3304
199.843	0.328
200.226	0.3179
200.61	0.3124
200.993	0.3079
201.376	0.3097
201.76	0.3038
202.143	0.3002
202.527	0.2889
202.91	0.2829
203.293	0.277
203.676	0.2702
204.059	0.2695
204.443	0.2713
204.826	0.275
205.209	0.2747
205.592	0.2685
205.975	0.2632
206.358	0.2628
206.741	0.2618
207.124	0.2658
207.507	0.2584
207.89	0.2562
208.273	0.2534
208.655	0.2515
209.038	0.2487
209.421	0.2427
209.804	0.2427
210.186	0.2436
210.569	0.2424
210.951	0.2435
211.334	0.2397
211.717	0.2379
212.099	0.2306
212.482	0.2284
212.864	0.2272
213.246	0.229
213.629	0.226
214.011	0.2252
214.393	0.2191
214.776	0.216
215.158	0.2127
215.54	0.2108
215.922	0.2125
216.305	0.2108
216.687	0.2097
217.069	0.204
217.451	0.2033
217.833	0.203
218.215	0.2003
218.597	0.1956
218.979	0.1907
219.361	0.1876
219.742	0.1867
220.124	0.1857
220.506	0.1849
220.888	0.1795
221.27	0.1749
221.651	0.1725
222.033	0.1698
222.415	0.1666
222.796	0.1652
223.178	0.1624
223.559	0.1613
223.941	0.1538
224.322	0.1515
224.704	0.1489
225.085	0.15
225.466	0.1487
225.848	0.1458
226.229	0.1428
226.61	0.1412
226.992	0.1383
227.373	0.1358
227.754	0.134
228.135	0.1319
228.516	0.1298
228.897	0.1247
229.278	0.1246
229.659	0.1238
230.04	0.1248
230.421	0.1228
230.802	0.1194
231.183	0.1174
231.564	0.1171
231.944	0.1165
232.325	0.1143
232.706	0.1107
233.087	0.1105
233.467	0.1093
233.848	0.1091
234.229	0.1059
234.609	0.1066
234.99	0.1051
235.37	0.1052
235.751	0.1026
236.131	0.1013
236.511	0.1016
236.892	0.1009
237.272	0.1002
237.652	0.0992
238.033	0.0988
238.413	0.0989
238.793	0.095
239.173	0.0944
239.553	0.0929
239.933	0.0936
240.313	0.0917
240.694	0.0885
241.074	0.0874
241.453	0.0871
241.833	0.0879
242.213	0.0883
242.593	0.0874
242.973	0.0878
243.353	0.0857
243.732	0.0866
244.112	0.0871
244.492	0.0868
244.872	0.0856
245.251	0.0844
245.631	0.0845
246.01	0.0839
246.39	0.0823
246.769	0.0838
247.149	0.0837
247.528	0.0851
247.908	0.0834
248.287	0.0829
248.666	0.0818
249.045	0.0817
249.425	0.0813
249.804	0.0812
250.183	0.0802
250.562	0.0795
250.941	0.0795
251.32	0.0789
251.699	0.0782
252.078	0.0785
252.457	0.0789
252.836	0.0795
253.215	0.0779
253.594	0.0777
253.973	0.0782
254.352	0.078
254.731	0.0779
255.109	0.0753
255.488	0.0764
255.867	0.0764
256.245	0.0771
256.624	0.0747
257.002	0.0732
257.381	0.0736
257.759	0.0745
258.138	0.0743
258.516	0.0743
258.895	0.0736
259.273	0.073
259.651	0.0715
260.03	0.0711
260.408	0.0721
260.786	0.0727
261.164	0.0726
261.542	0.0718
261.921	0.071
262.299	0.0719
262.677	0.0705
263.055	0.0696
263.433	0.0673
263.811	0.0669
264.188	0.0668
264.566	0.0671
264.944	0.0675
265.322	0.0686
265.7	0.0685
266.077	0.0684
266.455	0.0673
266.833	0.0677
267.21	0.0673
267.588	0.0674
267.966	0.0664
268.343	0.0673
268.721	0.0664
269.098	0.0656
269.475	0.0657
269.853	0.0658
270.23	0.0661
270.607	0.064
270.985	0.0639
271.362	0.0633
271.739	0.0634
272.116	0.0629
272.494	0.0617
272.871	0.0615
273.248	0.0605
273.625	0.0604
274.002	0.06
274.379	0.0589
274.756	0.0601
275.132	0.0586
275.509	0.0588
275.886	0.0578
276.263	0.0581
276.64	0.0582
277.016	0.0584
277.393	0.0595
277.77	0.0579
278.146	0.0574
278.523	0.0556
278.899	0.0563
279.276	0.0554
279.652	0.056
280.029	0.0556
280.405	0.0545
280.782	0.0542
281.158	0.0544
281.534	0.0529
281.91	0.0518
282.287	0.0509
282.663	0.0537
283.039	0.054
283.415	0.0535
283.791	0.0518
284.167	0.0512
284.543	0.0509
284.919	0.0499
285.295	0.05
285.671	0.0494
286.047	0.0492
286.423	0.0472
286.799	0.0484
287.174	0.0486
287.55	0.0495
287.926	0.0485
288.301	0.0486
288.677	0.048
289.053	0.0475
289.428	0.0469
289.804	0.0466
290.179	0.0458
290.555	0.0466
290.93	0.0467
291.305	0.0453
291.681	0.0447
292.056	0.0451
292.431	0.045
292.806	0.0441
293.182	0.0429
293.557	0.0434
293.932	0.0438
294.307	0.0441
294.682	0.0453
295.057	0.045
295.432	0.0445
295.807	0.043
296.182	0.0427
296.557	0.0432
296.932	0.043
297.306	0.0422
297.681	0.0407
298.056	0.0397
298.43	0.0394
298.805	0.0386
299.18	0.0384
299.554	0.0381
299.929	0.0397
300.303	0.0408
300.678	0.0401
301.052	0.0405
301.427	0.0401
301.801	0.04
302.175	0.0377
302.55	0.0383
302.924	0.0378
303.298	0.0385
303.672	0.0376
304.046	0.0372
304.421	0.0369
304.795	0.0366
305.169	0.037
305.543	0.0352
305.917	0.0344
306.291	0.0343
306.664	0.0365
307.038	0.0352
307.412	0.0348
307.786	0.0337
308.16	0.0354
308.533	0.036
308.907	0.0346
309.281	0.0358
309.654	0.034
310.028	0.0352
310.401	0.0326
310.775	0.0316
311.148	0.0314
311.522	0.0314
311.895	0.0324
312.268	0.0315
312.642	0.0316
313.015	0.0315
313.388	0.0318
313.761	0.0322
314.135	0.0327
314.508	0.0324
314.881	0.0314
315.254	0.0307
315.627	0.031
316	0.0318
316.373	0.0312
316.746	0.0308
317.118	0.0297
317.491	0.0305
317.864	0.031
318.237	0.0301
318.61	0.028
318.982	0.0259
319.355	0.025
319.727	0.0271
320.1	0.0274
320.473	0.028
320.845	0.0277
321.218	0.0284
321.59	0.029
321.962	0.0281
322.335	0.0264
322.707	0.0272
323.079	0.0267
323.452	0.0288
323.824	0.0292
324.196	0.0288
324.568	0.0271
324.94	0.0247
325.312	0.0266
325.684	0.027
326.056	0.0273
326.428	0.0241
326.8	0.0223
327.172	0.0223
327.544	0.0235
327.915	0.0234
328.287	0.025
328.659	0.0268
329.031	0.0273
329.402	0.0228
329.774	0.0199
330.145	0.0193
330.517	0.0208
330.888	0.021
331.26	0.0206
331.631	0.02
332.003	0.0199
332.374	0.0193
332.745	0.0213
333.117	0.0209
333.488	0.0219
333.859	0.0208
334.23	0.021
334.601	0.0196
334.972	0.0208
335.343	0.021
335.714	0.0211
336.085	0.02
336.456	0.0191
336.827	0.0191
337.198	0.0185
337.569	0.0176
337.94	0.0174
338.31	0.018
338.681	0.018
339.052	0.0187
339.422	0.0192
339.793	0.0201
340.164	0.0214
340.534	0.0204
340.905	0.0199
341.275	0.0167
341.645	0.0171
342.016	0.0183
342.386	0.0188
342.756	0.0186
343.127	0.0179
343.497	0.0186
343.867	0.0198
344.237	0.0207
344.607	0.0188
344.977	0.0167
345.347	0.016
345.717	0.0164
346.087	0.0159
346.457	0.0161
346.827	0.0175
347.197	0.0179
347.567	0.0167
347.936	0.0158
348.306	0.0167
348.676	0.0178
349.046	0.0187
349.415	0.0181
349.785	0.0175
350.154	0.0154
350.524	0.0158
350.893	0.0148
351.263	0.0168
351.632	0.0157
352.001	0.0166
352.371	0.0155
352.74	0.0152
353.109	0.0149
353.478	0.0141
353.847	0.0149
354.217	0.0167
354.586	0.0156
354.955	0.0154
355.324	0.0125
355.693	0.015
356.062	0.0153
356.43	0.0176
356.799	0.0156
357.168	0.0143
357.537	0.0131
357.906	0.012
358.274	0.0124
358.643	0.011
359.011	0.0118
359.38	0.0105
359.749	0.0111
360.117	0.0118
360.486	0.0133
360.854	0.0134
361.222	0.0117
361.591	0.0108
361.959	0.0102
362.327	0.0123
362.695	0.0119
363.064	0.0139
363.432	0.0129
363.8	0.0124
364.168	0.0103
364.536	0.0099
364.904	0.0102
365.272	0.0102
365.64	0.0096
366.008	0.0115
366.376	0.011
366.743	0.0114
367.111	0.0101
367.479	0.0096
367.847	0.0101
368.214	0.0099
368.582	0.0099
368.949	0.0115
369.317	0.0102
369.684	0.0096
370.052	0.008
370.419	0.0092
370.787	0.0117
371.154	0.0135
371.521	0.0153
371.889	0.0148
372.256	0.0118
372.623	0.0097
372.99	0.0086
373.357	0.0094
373.724	0.01
374.091	0.0106
374.458	0.0094
374.825	0.01
375.192	0.0076
375.559	0.008
375.926	0.0076
376.293	0.0093
376.659	0.0102
377.026	0.0101
377.393	0.0102
377.759	0.0099
378.126	0.0099
378.492	0.0078
378.859	0.009
379.225	0.0078
379.592	0.0101
379.958	0.0079
380.325	0.0076
380.691	0.0068
381.057	0.0075
381.423	0.0072
381.79	0.0073
382.156	0.0057
382.522	0.0046
382.888	0.0051
383.254	0.0074
383.62	0.0102
383.986	0.0117
384.352	0.0105
384.718	0.0092
385.084	0.0081
385.449	0.0076
385.815	0.0085
386.181	0.0082
386.547	0.0091
386.912	0.0085
387.278	0.0085
387.643	0.0073
388.009	0.0083
388.374	0.007
388.74	0.0076
389.105	0.0073
389.471	0.0068
389.836	0.0075
390.201	0.0069
390.566	0.0078
390.932	0.0067
391.297	0.0045
391.662	0.0047
392.027	0.0032
392.392	0.0058
392.757	0.0052
393.122	0.0072
393.487	0.0065
393.852	0.0068
394.217	0.0061
394.582	0.0067
394.946	0.0054
395.311	0.0062
395.676	0.0057
396.04	0.0069
396.405	0.0067
396.77	0.0071
397.134	0.0054
397.499	0.0045
397.863	0.004
398.227	0.0078
398.592	0.0072
398.956	0.009
399.32	0.0059
399.685	0.0073
400.049	0.0055
400.413	0.0047
400.777	0.0038
401.141	0.0051
401.505	0.0069
401.869	0.0062
402.233	0.0036
402.597	0.0013
402.961	0.0005
403.325	0.0042
403.689	0.0063
404.053	0.009
404.416	0.0049
404.78	0.0029
405.144	0.0029
405.507	0.0049
405.871	0.0066
406.234	0.0051
406.598	0.0056
406.961	0.0043
407.325	0.0049
407.688	0.0031
408.051	0.0056
408.415	0.0074
408.778	0.0074
409.141	0.0048
409.504	0.0047
409.867	0.0047
410.23	0.006
410.593	0.0041
410.956	0.0036
411.319	0.0039
411.682	0.0018
412.045	0.0041
412.408	0.0021
412.771	0.0059
413.134	0.0033
413.496	0.0035
413.859	0.0025
414.222	0.0034
414.584	0.0062
414.947	0.0058
415.309	0.0054
415.672	0.0051
416.034	0.0039
416.396	0.0018
416.759	0.0009
417.121	0.0006
417.483	0.0008
417.846	-0.0003
418.208	0.002
418.57	0.0031
418.932	0.0022
419.294	0.0008
419.656	0.0026
420.018	0.0035
420.38	0.0032
420.742	0.0013
421.104	0.0015
421.466	0.002
421.827	0.0021
422.189	0.0027
422.551	0.0025
422.912	0.0035
423.274	0.003
423.636	0.0025
423.997	0.004
424.359	0.0054
424.72	0.0066
425.081	0.004
425.443	0.0028
425.804	0.0036
426.165	0.0064
426.527	0.0061
426.888	0.0017
427.249	0.0013
427.61	0.002
427.971	0.0053
428.332	0.0034
428.693	0.0027
429.054	0.0012
429.415	0.0004
429.776	-0.0012
430.137	-0.0018
430.498	0.0002
430.858	0.0022
431.219	0.0031
431.58	0.0017
431.94	0.0034
432.301	0.0041
432.661	0.0029
433.022	0.0013
433.382	-0.0005
433.743	0.0047
434.103	0.003
434.463	0.0045
434.824	0.0013
435.184	0.0034
435.544	0.0035
435.904	0.0047
436.264	0.0029
436.624	0.0041
436.985	0.0027
437.345	0.0026
437.704	0.0017
438.064	0.0007
438.424	0.0019
438.784	0.0021
439.144	0.0018
439.504	0.0003
439.863	-0.0013
440.223	0.0009
440.583	0.0016
440.942	0.0015
441.302	0.0009
441.661	0.0004
442.021	0.0022
442.38	0.0017
442.739	0.002
443.099	-0.0004
443.458	0.0018
443.817	0.003
444.176	0.0044
444.536	0.001
444.895	0.0006
445.254	-0.0017
445.613	-0.001
445.972	0.0001
446.331	0.0027
446.69	0.0019
447.049	-0.002
447.407	-0.0024
447.766	-0.0008
448.125	0.0012
448.484	0.002
448.842	0.0025
449.201	0.0016
449.559	0.0006
449.918	-0.0001
450.276	0.0007
450.635	0.0019
450.993	0.0013
451.352	0.0002
451.71	0.0012
452.068	0.001
452.426	0.0012
452.785	-0.0007
453.143	-0.0005
453.501	0.0001
453.859	-0.0025
454.217	-0.0007
454.575	-0.0014
454.933	-0.0001
455.291	-0.0005
455.649	0.0001
456.006	0.0002
456.364	-0.0003
456.722	0.0009
457.079	0.0018
457.437	0.0025
457.795	0.0023
458.152	0.0015
458.51	0.0012
458.867	0.0002
459.225	0.0021
459.582	0.0023
459.939	0.0025
460.297	0.0019
460.654	0.002
461.011	0.0017
461.368	0.0038
461.725	0.003
462.082	0.0054
462.44	0.0017
462.797	-0.0001
463.153	-0.0012
463.51	-0.0015
463.867	-0.0006
464.224	-0.0002
464.581	0.0018
464.938	0.0033
465.294	0.0043
465.651	0.0055
466.008	0.004
466.364	0.003
466.721	0.0011
467.077	0.0001
467.434	0.0009
467.79	0.0025
468.146	0.0025
468.503	0.0013
468.859	-0.0006
469.215	-0.0003
469.571	-0.0025
469.927	-0.0006
470.284	0.0012
470.64	0.0044
470.996	0.002
471.352	0.0001
471.707	-0.0035
472.063	0.0006
472.419	0.0024
472.775	0.0054
473.131	0.0017
473.486	-0.0007
473.842	-0.0015
474.198	0.0003
474.553	0.002
474.909	0.0044
475.264	0.0033
475.62	0.0049
475.975	0.0025
476.331	0.0027
476.686	0.0015
477.041	0.0001
477.396	0.0005
477.752	0.0019
478.107	0.0021
478.462	-0.0002
478.817	-0.0014
479.172	-0.0001
479.527	0.0006
479.882	-0.0014
480.237	-0.0018
480.591	-0.0017
480.946	0.0011
481.301	-0.0001
481.656	0.0016
482.01	-0.0007
482.365	0.0006
482.72	-0.002
483.074	-0.0021
483.429	-0.0022
483.783	0.0005
484.137	0.0024
484.492	0.0029
484.846	0.001
485.2	-0.0015
485.555	-0.0027
485.909	-0.0033
486.263	-0.0037
486.617	-0.0011
486.971	0.0021
487.325	0.0035
487.679	0.0009
488.033	-0.0005
488.387	0.0008
488.741	0.0023
489.094	0.0006
489.448	-0.0015
489.802	-0.0007
490.156	-0.0004
490.509	-0.0002
490.863	-0.0014
491.216	-0.001
491.57	-0.0002
491.923	-0.0001
492.277	0.0005
492.63	0.0015
492.983	0
493.337	-0.0012
493.69	-0.0028
494.043	-0.0016
494.396	-0.0008
494.749	-0.001
495.102	-0.0036
495.455	-0.0035
495.808	-0.0021
496.161	-0.0008
496.514	-0.0025
496.867	-0.0031
497.22	-0.0021
497.572	-0.0036
497.925	-0.0024
498.278	-0.0023
498.63	0.003
498.983	0.0016
499.335	0.001
499.688	-0.0023
500.04	-0.0045
500.393	-0.0042
500.745	-0.0048
501.097	-0.0035
501.449	-0.003
501.802	-0.0015
502.154	-0.0005
502.506	-0.0009
502.858	-0.0004
503.21	-0.0003
503.562	-0.0019
503.914	-0.0026
504.266	-0.0022
504.618	-0.0022
504.969	-0.0002
505.321	-0.0012
505.673	0.0007
506.025	-0.0003
506.376	-0.0007
506.728	-0.0026
507.079	-0.003
507.431	-0.0015
507.782	0.0005
508.134	0.0014
508.485	-0.0002
508.836	-0.0011
509.188	-0.0032
509.539	-0.0018
509.89	-0.0013
510.241	-0.0034
510.592	-0.0041
510.943	-0.0053
511.294	-0
511.645	-0.002
511.996	-0.0024
512.347	-0.0058
512.698	-0.0028
513.049	-0.0017
513.399	0.0016
513.75	0.0026
514.101	0.003
514.451	0.0023
514.802	-0.0021
515.152	-0.0049
515.503	-0.0059
515.853	-0.003
516.203	-0.001
516.554	-0.001
516.904	0.0009
517.254	0.0005
517.604	-0.0002
517.955	-0.0023
518.305	-0.0042
518.655	-0.0034
519.005	-0.0035
519.355	-0.0009
519.705	-0.0038
520.055	-0.0068
520.404	-0.0065
520.754	-0.0061
521.104	-0.0017
521.454	-0.0028
521.803	-0.0009
522.153	-0.0025
522.502	-0.0027
522.852	-0.0009
523.201	0.0002
523.551	0.0017
523.9	-0.0005
524.249	-0.0023
524.599	-0.0026
524.948	-0.0039
525.297	-0.0029
525.646	-0.0036
525.995	-0.004
526.344	-0.0042
526.694	-0.005
527.042	-0.0039
527.391	-0.0061
527.74	-0.0059
528.089	-0.0055
528.438	-0.0046
528.787	-0.0052
529.135	-0.0078
529.484	-0.0082
529.833	-0.0067
530.181	-0.0052
530.53	-0.0054
530.878	-0.0068
531.227	-0.0046
531.575	-0.0014
531.923	-0.0012
532.271	-0.0029
532.62	-0.0024
532.968	-0.004
533.316	-0.0027
533.664	-0.0027
534.012	0.0003
534.36	0.0011
534.708	0.0001
535.056	-0.0017
535.404	-0.0009
535.752	0.0009
536.1	0.0008
536.447	-0.0013
536.795	-0.0065
537.143	-0.0079
537.49	-0.0077
537.838	-0.0072
538.185	-0.0056
538.533	-0.0056
538.88	-0.003
539.228	-0.0031
539.575	-0.003
539.922	-0.0049
540.269	-0.0029
540.617	-0.0021
540.964	-0.0025
541.311	-0.0027
541.658	-0.0043
542.005	-0.0027
542.352	-0.0053
542.699	-0.0063
543.045	-0.0068
543.392	-0.0051
543.739	-0.0046
544.086	-0.0067
544.432	-0.0071
544.779	-0.0071
545.126	-0.0042
545.472	-0.0056
545.819	-0.0051
546.165	-0.0082
546.512	-0.0045
546.858	-0.0043
547.204	-0.003
547.55	-0.0046
547.897	-0.0059
548.243	-0.0058
548.589	-0.007
548.935	-0.0067
549.281	-0.0063
549.627	-0.0077
549.973	-0.0043
550.319	-0.0049
550.665	-0.0031
551.01	-0.0041
551.356	-0.0025
551.702	-0.0018
552.048	-0.0024
552.393	-0.003
552.739	-0.0074
553.084	-0.0072
553.43	-0.01
553.775	-0.0067
554.12	-0.0081
554.466	-0.0067
554.811	-0.0092
555.156	-0.0106
555.502	-0.0106
555.847	-0.0048
556.192	-0.0022
556.537	-0.0024
556.882	-0.0055
557.227	-0.0079
557.572	-0.0075
557.917	-0.0043
558.261	-0.0004
558.606	0.0017
558.951	-0.0029
559.295	-0.006
559.64	-0.01
559.985	-0.0054
560.329	-0.0048
560.674	-0
561.018	-0.0031
561.363	-0.0039
561.707	-0.0067
562.051	-0.0071
562.395	-0.0057
562.74	-0.0062
563.084	-0.0061
563.428	-0.0074
563.772	-0.0083
564.116	-0.0082
564.46	-0.008
564.804	-0.0064
565.148	-0.0077
565.492	-0.0068
565.835	-0.0041
566.179	-0.0006
566.523	-0.0027
566.866	-0.0065
567.21	-0.0099
567.554	-0.0074
567.897	-0.0036
568.24	-0.0011
568.584	-0.0011
568.927	-0.002
569.271	-0.0025
569.614	-0.004
569.957	-0.0042
570.3	-0.0031
570.643	-0.0017
570.986	-0.0051
571.329	-0.0035
571.672	-0.0036
572.015	-0.0012
572.358	-0
572.701	-0.0005
573.044	-0.003
573.387	-0.0069
573.729	-0.0068
574.072	-0.0042
574.414	-0.0078
574.757	-0.0067
575.099	-0.0105
575.442	-0.0094
575.784	-0.0075
576.127	-0.003
576.469	-0.0033
576.811	-0.0048
577.153	-0.006
577.496	-0.0055
577.838	-0.0049
578.18	-0.0071
578.522	-0.0081
578.864	-0.0128
579.206	-0.0087
579.548	-0.0081
579.889	-0.009
580.231	-0.0068
580.573	-0.003
580.915	-0.002
581.256	-0.0066
581.598	-0.0093
581.939	-0.0116
582.281	-0.0073
582.622	-0.0084
582.964	-0.005
583.305	-0.0083
583.646	-0.0064
583.988	-0.0021
584.329	-0.0034
584.67	-0.0075
585.011	-0.0115
585.352	-0.0136
585.693	-0.0087
586.034	-0.0086
586.375	-0.0058
586.716	-0.0042
587.057	-0.003
587.398	-0.0049
587.738	-0.0033
588.079	-0.0048
588.42	-0.0045
588.76	-0.0089
589.101	-0.0078
589.441	-0.0081
589.782	-0.005
590.122	-0.007
590.463	-0.0065
590.803	-0.0097
591.143	-0.007
591.483	-0.0099
591.823	-0.0106
592.164	-0.0104
592.504	-0.007
592.844	-0.0054
593.184	-0.0081
593.523	-0.0078
593.863	-0.0064
594.203	-0.0068
594.543	-0.0061
594.883	-0.0079
595.222	-0.007
595.562	-0.0028
595.901	-0.0037
596.241	-0.0072
596.58	-0.0115
596.92	-0.0119
597.259	-0.0086
597.599	-0.0055
597.938	-0.0025
598.277	-0.0015
598.616	-0.0055
598.955	-0.0062
599.295	-0.0086
599.634	-0.0084
599.973	-0.0117
600.312	-0.0118
600.65	-0.0098
600.989	-0.0071
601.328	-0.0026
601.667	0.0007
602.005	-0.0012
602.344	-0.0058
602.683	-0.0088
603.021	-0.0096
603.36	-0.0101
603.698	-0.0113
604.037	-0.0123
604.375	-0.0093
604.713	-0.0096
605.052	-0.0077
605.39	-0.0096
605.728	-0.008
606.066	-0.0034
606.404	-0.0047
606.742	-0.0059
607.08	-0.0084
607.418	-0.0103
607.756	-0.0086
608.094	-0.0089
608.431	-0.0074
608.769	-0.0067
609.107	-0.0114
609.444	-0.0085
609.782	-0.0101
610.12	-0.003
610.457	-0.0052
610.794	-0.0083
611.132	-0.0098
611.469	-0.0105
611.806	-0.0074
612.144	-0.0084
612.481	-0.0066
612.818	-0.0041
613.155	-0.0063
613.492	-0.0059
613.829	-0.0093
614.166	-0.0066
614.503	-0.0059
614.84	-0.009
615.176	-0.0116
615.513	-0.0133
615.85	-0.0107
616.187	-0.0074
616.523	-0.008
616.86	-0.0088
617.196	-0.0098
617.533	-0.006
617.869	-0.0038
618.205	-0.0054
618.542	-0.007
618.878	-0.0093
619.214	-0.0066
619.55	-0.0087
619.886	-0.0075
620.222	-0.0113
620.558	-0.0074
620.894	-0.0028
621.23	-0.0011
621.566	-0.0056
621.902	-0.0098
622.238	-0.0125
622.573	-0.0051
622.909	-0.0077
623.244	-0.0053
623.58	-0.0104
623.916	-0.01
624.251	-0.0083
624.586	-0.0041
624.922	-0.004
625.257	-0.0065
625.592	-0.0089
625.927	-0.0041
626.263	-0.0029
626.598	-0.0035
626.933	-0.0031
627.268	-0.0027
627.603	-0.0067
627.938	-0.0127
628.272	-0.013
628.607	-0.0126
628.942	-0.0096
629.277	-0.0093
629.611	-0.007
629.946	-0.0066
630.281	-0.0063
630.615	-0.0045
630.949	-0.0057
631.284	-0.0101
631.618	-0.0104
631.953	-0.0093
632.287	-0.0041
632.621	-0.0032
632.955	-0.0033
633.289	-0.0007
633.623	-0.0036
633.957	-0.0017
634.291	-0.0088
634.625	-0.0065
634.959	-0.0098
635.293	-0.0081
635.627	-0.0108
635.96	-0.0105
636.294	-0.0141
636.627	-0.0122
636.961	-0.0106
637.294	-0.0097
637.628	-0.0082
637.961	-0.0084
638.295	-0.0019
638.628	-0.0075
638.961	-0.0084
639.294	-0.006
639.628	-0.0014
639.961	-0.0012
640.294	-0.0039
640.627	-0.0038
640.96	-0.0085
641.293	-0.008
641.625	-0.0092
641.958	-0.0079
642.291	-0.0049
642.624	-0.0034
642.956	-0.0013
643.289	-0.0049
643.621	-0.0095
643.954	-0.0117
644.286	-0.0182
644.619	-0.017
644.951	-0.0151
645.283	-0.0097
645.616	-0.0084
645.948	-0.0103
646.28	-0.0103
646.612	-0.0056
646.944	0.0011
647.276	0.0022
647.608	-0.005
647.94	-0.0052
648.272	-0.004
648.603	-0.0013
648.935	-0.0026
649.267	-0.0073
649.598	-0.0078
649.93	-0.011
650.261	-0.0072
650.593	-0.0018
650.924	-0.0006
651.256	-0.0005
651.587	-0.0027
651.918	-0.0024
652.25	-0.0024
652.581	-0.0047
652.912	-0.0058
653.243	-0.0069
653.574	-0.0076
653.905	-0.0084
654.236	-0.0094
654.567	-0.0095
654.897	-0.011
655.228	-0.0092
655.559	-0.0087
655.89	-0.0065
656.22	-0.008
656.551	-0.0084
656.881	-0.0088
657.212	-0.011
657.542	-0.0125
657.872	-0.0121
658.203	-0.0068
658.533	0.0097
658.863	0.005
659.193	-0.0066
659.523	-0.013
659.853	-0.0242
660.183	-0.0161
660.513	-0.0132
660.843	-0.0093
661.173	-0.006
661.503	-0.0064
661.833	-0.0078
662.162	-0.0059
662.492	-0.0013
662.822	-0.0048
663.151	-0.0091
663.481	-0.0133
663.81	-0.013
664.139	-0.0107
664.469	-0.0122
664.798	-0.0096
665.127	-0.0123
665.456	-0.0074
665.785	-0.0031
666.114	-0.0069
666.443	-0.0082
666.772	-0.0112
667.101	-0.0087
667.43	-0.0107
667.759	-0.0079
668.088	-0.0064
668.416	-0.0053
668.745	-0.0073
669.074	-0.0105
669.402	-0.0143
669.731	-0.0153
670.059	-0.014
670.388	-0.0066
670.716	-0.0073
671.044	-0.0033
671.372	-0.0057
671.701	-0.0073
672.029	-0.005
672.357	-0.0044
672.685	-0.0005
673.013	-0.0023
673.341	-0.0016
673.669	-0.0057
673.996	-0.0077
674.324	-0.0099
674.652	-0.006
674.98	-0.0044
675.307	-0.0044
675.635	-0.0103
675.962	-0.0129
676.29	-0.0154
676.617	-0.0082
676.945	-0.0074
677.272	-0.0034
677.599	-0.0054
677.926	-0.0068
678.253	-0.0079
678.581	-0.0095
678.908	-0.0111
679.235	-0.0083
679.561	-0.0076
679.888	-0.0038
680.215	-0.0079
680.542	-0.0033
680.869	-0.0059
681.195	-0.003
681.522	-0.0049
681.849	-0.0047
682.175	-0.0048
682.502	-0.0058
682.828	-0.0039
683.154	-0.0078
683.481	-0.0085
683.807	-0.0113
684.133	-0.0113
684.459	-0.01
684.785	-0.0091
685.111	-0.0091
685.437	-0.0156
685.763	-0.0185
686.089	-0.0196
686.415	-0.0165
686.741	-0.011
687.067	-0.0049
687.392	-0.0043
687.718	-0.0082
688.043	-0.0102
688.369	-0.01
688.694	-0.0078
689.02	-0.0112
689.345	-0.01
689.67	-0.0131
689.996	-0.0096
690.321	-0.0095
690.646	-0.0081
690.971	-0.0092
691.296	-0.0095
691.621	-0.0132
691.946	-0.0097
692.271	-0.0091
692.596	-0.002
692.921	-0.0044
693.245	-0.0012
693.57	-0.0048
693.895	-0.0018
694.219	-0.0014
694.544	-0.0007
694.868	-0.0044
695.193	-0.0087
695.517	-0.0068
695.841	-0.009
696.166	-0.0125
696.49	-0.0176
696.814	-0.0164
697.138	-0.012
697.462	-0.0104
697.786	-0.0047
698.11	-0.0077
698.434	-0.0056
698.758	-0.0094
699.081	-0.0089
699.405	-0.0108
699.729	-0.0037
700.052	-0.0049
700.376	-0.0028
700.7	-0.0099
701.023	-0.0144
701.346	-0.0182
701.67	-0.0155
701.993	-0.0116
702.316	-0.0103
702.639	-0.012
702.963	-0.0156
703.286	-0.0182
703.609	-0.0208
703.932	-0.0164
704.255	-0.0108
704.578	-0.0072
704.9	-0.0052
705.223	-0.0043
705.546	-0.0012
705.868	-0.0018
706.191	-0.0092
706.514	-0.0147
706.836	-0.0131
707.159	-0.0048
707.481	0.0012
707.803	-0.0018
708.126	-0.0064
708.448	-0.0135
708.77	-0.0123
709.092	-0.0117
709.414	-0.0097
709.736	-0.0084
710.058	-0.0096
710.38	-0.0099
710.702	-0.0112
711.024	-0.0079
711.345	-0.0082
711.667	-0.0076
711.989	-0.0088
712.31	-0.0074
712.632	-0.0089
712.953	-0.0054
713.275	-0.0036
713.596	-0.0004
713.917	-0.0041
714.239	-0.0096
714.56	-0.0147
714.881	-0.0132
715.202	-0.011
715.523	-0.0053
715.844	-0.0054
716.165	-0.0058
716.486	-0.01
716.807	-0.0132
717.128	-0.0102
717.448	-0.0116
717.769	-0.0106
718.09	-0.0102
718.41	-0.0082
718.731	-0.0044
719.051	-0.0054
719.372	0.0004
719.692	-0.0037
720.012	-0
720.332	-0.0062
720.653	-0.0047
720.973	-0.0076
721.293	-0.0093
721.613	-0.0111
721.933	-0.0074
722.253	-0.0039
722.573	-0.0039
722.892	-0.0091
723.212	-0.0116
723.532	-0.0114
723.851	-0.0077
724.171	-0.0078
724.491	-0.0097
724.81	-0.0118
725.129	-0.0078
725.449	-0.0063
725.768	-0.0118
726.087	-0.016
726.407	-0.0137
726.726	-0.0077
727.045	-0.0081
727.364	-0.0084
727.683	-0.0077
728.002	-0.0048
728.321	-0.0032
728.64	-0.0054
728.958	-0.0058
729.277	-0.0145
729.596	-0.0137
729.914	-0.0149
730.233	-0.0078
730.551	-0.0095
730.87	-0.0098
731.188	-0.0091
731.507	-0.0111
731.825	-0.0125
732.143	-0.0157
732.461	-0.0124
732.779	-0.0102
733.097	-0.0105
733.415	-0.0085
733.733	-0.0099
734.051	-0.0111
734.369	-0.0138
734.687	-0.0156
735.005	-0.013
735.322	-0.0113
735.64	-0.0121
735.957	-0.0096
736.275	-0.0072
736.592	-0.0032
736.91	-0.0036
737.227	-0.004
737.544	-0.006
737.862	-0.0054
738.179	-0.0074
738.496	-0.0079
738.813	-0.0129
739.13	-0.0166
739.447	-0.0139
739.764	-0.0153
740.081	-0.0154
740.398	-0.0175
740.714	-0.0121
741.031	-0.0069
741.348	-0.0034
741.664	-0.0046
741.981	-0.0042
742.297	-0.0031
742.614	-0.0056
742.93	-0.0108
743.246	-0.015
743.563	-0.0127
743.879	-0.0136
744.195	-0.0122
744.511	-0.0147
744.827	-0.0132
745.143	-0.018
745.459	-0.0158
745.775	-0.0142
746.091	-0.0114
746.406	-0.0093
746.722	-0.0073
747.038	-0.0077
747.353	-0.0103
747.669	-0.0151
747.984	-0.0181
748.3	-0.0172
748.615	-0.0188
748.93	-0.0137
749.246	-0.0117
749.561	-0.007
749.876	-0.0096
750.191	-0.0129
750.506	-0.015
750.821	-0.0081
751.136	-0.0112
751.451	-0.0063
751.766	-0.0157
752.08	-0.0132
752.395	-0.0131
752.71	-0.0088
753.024	-0.0051
753.339	-0.0031
753.653	-0.0052
753.968	-0.0077
754.282	-0.0106
754.596	-0.0044
754.911	-0.0057
755.225	-0.0003
755.539	-0.0052
755.853	-0.0013
756.167	-0.0059
756.481	-0.0035
756.795	-0.0079
757.109	-0.0078
757.423	-0.0109
757.736	-0.0094
758.05	-0.0105
758.364	-0.0054
758.677	-0.0069
758.991	-0.0043
759.304	-0.0061
759.618	-0.0009
759.931	-0.0027
760.244	-0.0023
760.558	-0.007
760.871	-0.0108
761.184	-0.0147
761.497	-0.0118
761.81	-0.0114
762.123	-0.0157
762.436	-0.0179
762.749	-0.0169
763.062	-0.0107
763.374	-0.0117
763.687	-0.0092
764	-0.0077
764.312	-0.0031
764.625	-0.0054
764.937	-0.0098
765.25	-0.0161
765.562	-0.0118
765.874	-0.0098
766.186	-0.0069
766.499	-0.0086
766.811	-0.0111
767.123	-0.0116
767.435	-0.0139
767.747	-0.0096
768.059	-0.0098
768.37	-0.0093
768.682	-0.0101
768.994	-0.0155
769.306	-0.0141
769.617	-0.0159
769.929	-0.0047
770.24	-0.0045
770.552	-0.0036
770.863	-0.0119
771.174	-0.0104
771.486	-0.0091
771.797	-0.0068
772.108	-0.0103
772.419	-0.0113
772.73	-0.009
773.041	-0.0064
773.352	-0.006
773.663	-0.0082
773.974	-0.0053
774.285	-0.0061
774.595	-0.0058
774.906	-0.0084
775.217	-0.0028
775.527	-0.006
775.838	-0.0071
776.148	-0.0097
776.458	-0.0048
776.769	-0.0047
777.079	-0.0088
777.389	-0.013
777.699	-0.013
778.009	-0.0153
778.319	-0.0156
778.629	-0.0124
778.939	-0.0069
779.249	-0.0031
779.559	-0.0072
779.869	-0.0115
780.178	-0.0138
780.488	-0.0145
780.798	-0.014
781.107	-0.0141
781.417	-0.0141
781.726	-0.0157
782.035	-0.0179
782.345	-0.0135
782.654	-0.016
782.963	-0.0137
783.272	-0.0148
783.581	-0.008
783.89	-0.0058
784.199	-0.0076
784.508	-0.0148
784.817	-0.0202
785.126	-0.0223
785.434	-0.014
785.743	-0.006
786.052	-0.0011
786.36	-0.006
786.669	-0.0094
786.977	-0.0128
787.285	-0.0136
787.594	-0.013
787.902	-0.0062
788.21	-0.0042
788.518	-0.0027
788.826	-0.0068
789.135	-0.0061
789.442	-0.0138
789.75	-0.0144
790.058	-0.0171
790.366	-0.0132
790.674	-0.0153
790.981	-0.0096
791.289	-0.0073
791.597	-0.0106
791.904	-0.0138
792.212	-0.017
792.519	-0.014
792.826	-0.014
793.134	-0.0128
793.441	-0.0108
793.748	-0.0055
794.055	-0.0004
794.362	-0.0062
794.669	-0.0129
794.976	-0.0155
795.283	-0.0132
795.59	-0.0102
795.897	-0.0052
796.203	-0.0046
796.51	-0.0048
796.817	-0.0092
797.123	-0.0119
797.43	-0.0128
797.736	-0.0168
798.042	-0.0151
798.349	-0.0158
798.655	-0.0088
798.961	-0.0079
799.267	-0.0079
799.573	-0.0146
799.879	-0.0148
800.185	-0.0122
800.491	-0.0058
800.797	-0.0059
801.103	-0.0072
801.408	-0.0122
801.714	-0.0113
802.02	-0.0107
802.325	-0.0104
802.631	-0.0166
802.936	-0.0183
803.242	-0.019
803.547	-0.0153
803.852	-0.0183
804.157	-0.0156
804.462	-0.0175
804.768	-0.0132
805.073	-0.0167
805.378	-0.0118
805.682	-0.0095
805.987	-0.0104
806.292	-0.0076
806.597	-0.0083
806.902	-0.0061
807.206	-0.009
807.511	-0.0092
807.815	-0.0065
808.12	-0.01
808.424	-0.007
808.728	-0.0093
809.033	-0.004
809.337	-0.0145
809.641	-0.0151
809.945	-0.0223
810.249	-0.0127
810.553	-0.0132
810.857	-0.0101
811.161	-0.0103
811.465	-0.0079
811.768	-0.0089
812.072	-0.0179
812.376	-0.0148
812.679	-0.0152
812.983	-0.0101
813.286	-0.0147
813.59	-0.0167
813.893	-0.0134
814.196	-0.0105
814.499	-0.0047
814.803	-0.009
815.106	-0.0132
815.409	-0.013
815.712	-0.0096
816.015	-0.0053
816.318	-0.0095
816.62	-0.0108
816.923	-0.0133
817.226	-0.0154
817.528	-0.0162
817.831	-0.0141
818.133	-0.0112
818.436	-0.0126
818.738	-0.0046
819.041	-0.01
819.343	-0.0027
819.645	-0.0161
819.947	-0.0078
820.249	-0.0135
820.551	-0.0063
820.853	-0.0025
821.155	-0.0029
821.457	-0.0051
821.759	-0.013
822.061	-0.0133
822.362	-0.0179
822.664	-0.0156
822.966	-0.0095
823.267	-0.0046
823.569	-0.0043
823.87	-0.0183
824.171	-0.0169
824.473	-0.0203
824.774	-0.0095
825.075	-0.0126
825.376	-0.0056
825.677	-0.0055
825.978	-0.0039
826.279	-0.006
826.58	-0.0068
826.881	-0.0158
827.181	-0.0159
827.482	-0.0188
827.783	-0.0136
828.083	-0.0147
828.384	-0.0136
828.684	-0.0152
828.985	-0.0147
829.285	-0.0148
829.585	-0.0157
829.885	-0.0214
830.185	-0.0261
830.486	-0.0188
830.786	-0.0094
831.086	-0.0046
831.385	-0.0141
831.685	-0.0284
831.985	-0.03
832.285	-0.0233
832.585	-0.0176
832.884	-0.0152
833.184	-0.0169
833.483	-0.0215
833.783	-0.0183
834.082	-0.012
834.381	-0.0034
834.681	-0.0071
834.98	-0.0176
835.279	-0.0219
835.578	-0.0198
835.877	-0.0165
836.176	-0.0121
836.475	-0.0094
836.774	-0.0136
837.072	-0.0173
837.371	-0.0178
837.67	-0.0053
837.968	-0.0048
838.267	-0.0047
838.565	-0.0055
838.864	-0.0055
839.162	-0.0079
839.46	-0.0236
839.759	-0.0227
840.057	-0.0284
840.355	-0.0171
840.653	-0.0132
840.951	-0.0086
841.249	-0.0044
841.547	0.0019
841.845	0.0117
842.142	0.0108
842.44	-0.0052
842.738	-0.0183
843.035	-0.0269
843.333	-0.0162
843.63	-0.0182
843.928	-0.0148
844.225	-0.0157
844.522	-0.0099
844.82	-0.0121
845.117	-0.0116
845.414	-0.0038
845.711	0.0094
846.008	0.0008
846.305	-0.0176
846.602	-0.0321
846.898	-0.0221
847.195	-0.0157
847.492	-0.0105
847.788	-0.0167
848.085	-0.007
848.382	-0.0023
848.678	0.0029
848.974	-0.0046
849.271	-0.0099
849.567	-0.0163
849.863	-0.0181
850.159	-0.0186
850.455	-0.0053
850.751	-0.0008
851.047	-0.003
851.343	-0.0203
851.639	-0.019
851.935	-0.0162
852.23	-0.0043
852.526	-0.0206
852.822	-0.0164
853.117	-0.0164
853.413	0.0044
853.708	-0.0237
854.003	-0.0035
854.299	0.0013
854.594	0.0253
854.889	-0.0126
855.184	-0.0224
855.479	-0.0167
855.774	0.0031
856.069	-0.0019
856.364	-0.017
856.659	-0.0232
856.954	-0.0047
857.248	0.0025
857.543	0.0068
857.837	-0.0134
858.132	-0.0072
858.426	-0.0144
858.721	-0.0221
859.015	-0.0261
859.309	-0.031
859.604	-0.004
859.898	0.0033
860.192	0.0096
860.486	-0.0064
860.78	-0.0153
861.074	-0.0044
861.367	0.0004
861.661	-0.0007
861.955	-0.0059
862.248	0.0081
862.542	0.0147
862.836	0.0127
863.129	-0.021
863.422	-0.0048
863.716	-0.0103
864.009	0.0147
864.302	-0.0091
864.595	-0.0077
864.889	-0.0212
865.182	-0.018
865.475	-0.0075
865.767	-0.0083
866.06	-0.0201
866.353	-0.0395
866.646	-0.0205
866.938	-0.0055
867.231	0.0122
867.524	-0.001
867.816	0.0177
868.109	0.0205
868.401	0.0341
868.693	-0.0033
868.985	-0.0125
869.278	-0.0223
869.57	-0.0035
869.862	-0.0143
870.154	-0.0262
870.446	-0.0395
870.738	-0.0497
871.029	-0.0559
871.321	-0.0417
871.613	-0.0144
871.904	-0.0005
872.196	0.0006
872.487	-0.0088
872.779	-0.0225
873.07	-0.0255
873.362	-0.0152
873.653	0.0114
873.944	-0.008
874.235	-0.0355
874.526	-0.0325
874.817	-0.0321
875.108	0.003
875.399	-0.0151
875.69	0.0056
875.981	-0.015
876.271	-0.0118
876.562	-0.0101
876.853	-0.002
877.143	0.0021
877.434	-0.0018
877.724	-0.0246
878.014	-0.0205
878.305	-0.0314
878.595	0.0035
878.885	-0.0046
879.175	-0.0036
879.465	-0.032
879.755	-0.0324
880.045	0.0093
880.335	0.047
880.624	0.0753
880.914	0.0753
