Data from 26SS01LU_071417_1b_Absorbance_22-16-24-635.txt Node
Date: Tue Jul 18 22:16:24 MDT 2017
User: Tank Lab
Spectrometer: FLMS01220
Trigger mode: 0
Integration Time (sec): 1.000000E-1
Scans to average: 10
Electric dark correction enabled: true
Nonlinearity correction enabled: false
Boxcar width: 1
XAxis mode: Wavelengths
Number of Pixels in Spectrum: 2048
>>>>>Begin Spectral Data<<<<<
179.47	-0.178
179.856	-0.178
180.241	0.1252
180.626	-0
181.011	-0
181.396	-0
181.781	-0
182.166	-0
182.551	0.4057
182.936	0.621
183.321	-0
183.706	0.0729
184.091	-0.0821
184.476	-0.077
184.86	-0.4439
185.245	-0
185.63	-0.4062
186.015	-0
186.399	-0
186.784	0.3363
187.169	0.1179
187.553	-0.173
187.938	-0.0297
188.322	0.1158
188.707	0.0706
189.091	0.0373
189.475	0.0362
189.86	0.075
190.244	0.1193
190.629	0.1391
191.013	0.1478
191.397	0.1999
191.781	0.2459
192.165	0.3052
192.55	0.3287
192.934	0.3635
193.318	0.387
193.702	0.4352
194.086	0.4572
194.47	0.4715
194.854	0.466
195.238	0.4379
195.622	0.4403
196.006	0.4089
196.389	0.4028
196.773	0.3701
197.157	0.3571
197.541	0.3387
197.924	0.3314
198.308	0.3105
198.692	0.2922
199.075	0.271
199.459	0.2597
199.843	0.253
200.226	0.2423
200.61	0.229
200.993	0.2094
201.376	0.1955
201.76	0.1821
202.143	0.1782
202.527	0.174
202.91	0.1694
203.293	0.1572
203.676	0.1478
204.059	0.1424
204.443	0.1435
204.826	0.1419
205.209	0.1327
205.592	0.1258
205.975	0.1183
206.358	0.1167
206.741	0.1159
207.124	0.1163
207.507	0.1167
207.89	0.114
208.273	0.1115
208.655	0.1075
209.038	0.107
209.421	0.1068
209.804	0.1072
210.186	0.1015
210.569	0.1003
210.951	0.0996
211.334	0.0997
211.717	0.0973
212.099	0.0955
212.482	0.0966
212.864	0.0933
213.246	0.0925
213.629	0.0921
214.011	0.0935
214.393	0.0942
214.776	0.0925
215.158	0.0921
215.54	0.0886
215.922	0.0873
216.305	0.0866
216.687	0.0867
217.069	0.0859
217.451	0.0825
217.833	0.0839
218.215	0.082
218.597	0.0813
218.979	0.077
219.361	0.0773
219.742	0.0762
220.124	0.0765
220.506	0.0745
220.888	0.074
221.27	0.0718
221.651	0.0688
222.033	0.0682
222.415	0.0679
222.796	0.0676
223.178	0.0662
223.559	0.0642
223.941	0.0633
224.322	0.0621
224.704	0.0627
225.085	0.0611
225.466	0.0596
225.848	0.0564
226.229	0.0565
226.61	0.055
226.992	0.0552
227.373	0.0528
227.754	0.052
228.135	0.0512
228.516	0.0522
228.897	0.0522
229.278	0.051
229.659	0.0491
230.04	0.0486
230.421	0.0468
230.802	0.0462
231.183	0.0452
231.564	0.0453
231.944	0.0442
232.325	0.0427
232.706	0.0424
233.087	0.0416
233.467	0.0402
233.848	0.0379
234.229	0.0373
234.609	0.0375
234.99	0.0389
235.37	0.0385
235.751	0.0392
236.131	0.0385
236.511	0.0377
236.892	0.0366
237.272	0.0342
237.652	0.0333
238.033	0.0319
238.413	0.0325
238.793	0.0324
239.173	0.033
239.553	0.0333
239.933	0.0344
240.313	0.0338
240.694	0.0322
241.074	0.0303
241.453	0.0312
241.833	0.032
242.213	0.0328
242.593	0.0309
242.973	0.0312
243.353	0.0304
243.732	0.0304
244.112	0.0291
244.492	0.0294
244.872	0.0301
245.251	0.0307
245.631	0.031
246.01	0.0298
246.39	0.0282
246.769	0.0272
247.149	0.0283
247.528	0.0284
247.908	0.0286
248.287	0.0286
248.666	0.03
249.045	0.0288
249.425	0.028
249.804	0.0263
250.183	0.0283
250.562	0.0276
250.941	0.0273
251.32	0.0255
251.699	0.0265
252.078	0.0272
252.457	0.0272
252.836	0.0253
253.215	0.0259
253.594	0.026
253.973	0.0264
254.352	0.026
254.731	0.0267
255.109	0.0263
255.488	0.0264
255.867	0.0248
256.245	0.0262
256.624	0.0244
257.002	0.0252
257.381	0.0238
257.759	0.0248
258.138	0.0246
258.516	0.0254
258.895	0.0257
259.273	0.0258
259.651	0.0249
260.03	0.0249
260.408	0.0244
260.786	0.0239
261.164	0.0242
261.542	0.0233
261.921	0.0238
262.299	0.0223
262.677	0.0221
263.055	0.0227
263.433	0.0232
263.811	0.0239
264.188	0.0222
264.566	0.0212
264.944	0.022
265.322	0.0232
265.7	0.0241
266.077	0.0233
266.455	0.0218
266.833	0.0213
267.21	0.0205
267.588	0.0214
267.966	0.0206
268.343	0.0205
268.721	0.0205
269.098	0.0208
269.475	0.0214
269.853	0.0214
270.23	0.0206
270.607	0.0203
270.985	0.0201
271.362	0.0198
271.739	0.0198
272.116	0.0186
272.494	0.0181
272.871	0.0185
273.248	0.0181
273.625	0.019
274.002	0.0168
274.379	0.0175
274.756	0.017
275.132	0.0168
275.509	0.0179
275.886	0.0186
276.263	0.02
276.64	0.0184
277.016	0.0168
277.393	0.0168
277.77	0.0156
278.146	0.0171
278.523	0.0157
278.899	0.0173
279.276	0.0181
279.652	0.0187
280.029	0.0187
280.405	0.0173
280.782	0.0173
281.158	0.0168
281.534	0.0178
281.91	0.0172
282.287	0.017
282.663	0.0164
283.039	0.0182
283.415	0.0177
283.791	0.0172
284.167	0.0162
284.543	0.0164
284.919	0.0157
285.295	0.0149
285.671	0.0155
286.047	0.0166
286.423	0.0167
286.799	0.0166
287.174	0.0164
287.55	0.0162
287.926	0.0176
288.301	0.0166
288.677	0.0168
289.053	0.0149
289.428	0.0151
289.804	0.0153
290.179	0.0161
290.555	0.0159
290.93	0.0151
291.305	0.014
291.681	0.0134
292.056	0.0147
292.431	0.0147
292.806	0.0154
293.182	0.0143
293.557	0.0153
293.932	0.0154
294.307	0.014
294.682	0.013
295.057	0.0129
295.432	0.0143
295.807	0.014
296.182	0.0142
296.557	0.0137
296.932	0.015
297.306	0.0141
297.681	0.0132
298.056	0.0132
298.43	0.0139
298.805	0.0148
299.18	0.0125
299.554	0.011
299.929	0.0122
300.303	0.0138
300.678	0.0154
301.052	0.0148
301.427	0.014
301.801	0.0144
302.175	0.013
302.55	0.0123
302.924	0.0115
303.298	0.0116
303.672	0.0121
304.046	0.0117
304.421	0.0113
304.795	0.0122
305.169	0.0119
305.543	0.012
305.917	0.0109
306.291	0.0107
306.664	0.0118
307.038	0.0119
307.412	0.0125
307.786	0.0123
308.16	0.014
308.533	0.0134
308.907	0.0137
309.281	0.0122
309.654	0.013
310.028	0.0123
310.401	0.012
310.775	0.0114
311.148	0.0109
311.522	0.0104
311.895	0.0103
312.268	0.0092
312.642	0.0102
313.015	0.0093
313.388	0.0091
313.761	0.0096
314.135	0.009
314.508	0.0086
314.881	0.0072
315.254	0.0089
315.627	0.011
316	0.0126
316.373	0.0129
316.746	0.0111
317.118	0.0098
317.491	0.0088
317.864	0.0088
318.237	0.0089
318.61	0.0083
318.982	0.0082
319.355	0.0083
319.727	0.0073
320.1	0.0086
320.473	0.0098
320.845	0.0115
321.218	0.0112
321.59	0.0098
321.962	0.009
322.335	0.0084
322.707	0.0076
323.079	0.0081
323.452	0.0092
323.824	0.0113
324.196	0.0105
324.568	0.0097
324.94	0.0079
325.312	0.0101
325.684	0.0102
326.056	0.0097
326.428	0.0084
326.8	0.0068
327.172	0.0083
327.544	0.0068
327.915	0.0079
328.287	0.0067
328.659	0.0087
329.031	0.0085
329.402	0.0084
329.774	0.0062
330.145	0.0051
330.517	0.0052
330.888	0.0048
331.26	0.0054
331.631	0.0059
332.003	0.0069
332.374	0.0058
332.745	0.0054
333.117	0.0058
333.488	0.0076
333.859	0.0075
334.23	0.0066
334.601	0.0061
334.972	0.0066
335.343	0.0074
335.714	0.0066
336.085	0.006
336.456	0.0056
336.827	0.0058
337.198	0.0049
337.569	0.0052
337.94	0.0051
338.31	0.0054
338.681	0.0056
339.052	0.0048
339.422	0.0043
339.793	0.0056
340.164	0.0062
340.534	0.0064
340.905	0.0054
341.275	0.0064
341.645	0.0071
342.016	0.0054
342.386	0.0051
342.756	0.0042
343.127	0.0054
343.497	0.0052
343.867	0.0062
344.237	0.0048
344.607	0.0026
344.977	0.002
345.347	0.0015
345.717	0.003
346.087	0.0037
346.457	0.0046
346.827	0.0041
347.197	0.0029
347.567	0.0018
347.936	0.0037
348.306	0.0064
348.676	0.0094
349.046	0.0095
349.415	0.0081
349.785	0.005
350.154	0.0033
350.524	0.0033
350.893	0.0049
351.263	0.0039
351.632	0.0012
352.001	0.0019
352.371	0.0029
352.74	0.0044
353.109	0.0015
353.478	0.0034
353.847	0.0047
354.217	0.0073
354.586	0.0051
354.955	0.0048
355.324	0.0044
355.693	0.0043
356.062	0.0016
356.43	0.001
356.799	0.0021
357.168	0.0033
357.537	0.0032
357.906	0.0033
358.274	0.0041
358.643	0.0029
359.011	0.0019
359.38	0.0017
359.749	0.0018
360.117	0.0014
360.486	-0.0002
360.854	0.0015
361.222	0.0007
361.591	0.0004
361.959	-0.0011
362.327	-0.0002
362.695	-0.0005
363.064	-0.0003
363.432	-0
363.8	0.0025
364.168	0.0032
364.536	0.0011
364.904	0.0009
365.272	0.0002
365.64	0.0021
366.008	0.0021
366.376	0.0024
366.743	0.0019
367.111	0.001
367.479	0.0008
367.847	0.0005
368.214	0.0016
368.582	0.002
368.949	0.004
369.317	0.0031
369.684	0.0033
370.052	0.0018
370.419	0.0018
370.787	0.0013
371.154	0.0014
371.521	0.0003
371.889	-0.0005
372.256	-0.0008
372.623	-0.0002
372.99	-0.0004
373.357	-0
373.724	0.0005
374.091	-0
374.458	-0.0004
374.825	-0.0001
375.192	0.001
375.559	0.0001
375.926	-0.0005
376.293	0.0016
376.659	0.0019
377.026	0.0015
377.393	-0.0003
377.759	-0.0015
378.126	0.0008
378.492	0.0015
378.859	0.0023
379.225	0.0004
379.592	-0.0011
379.958	-0.0002
380.325	-0.0002
380.691	-0.0022
381.057	-0.0012
381.423	-0.0026
381.79	0.0012
382.156	-0.0002
382.522	0.0016
382.888	-0.0013
383.254	-0.0012
383.62	-0.0014
383.986	-0.0013
384.352	-0.0006
384.718	-0.0002
385.084	0.0034
385.449	0.0036
385.815	0.0026
386.181	0.0012
386.547	0.0011
386.912	-0.0005
387.278	-0.0038
387.643	-0.0029
388.009	-0.0021
388.374	0.0001
388.74	-0.0012
389.105	-0
389.471	-0.0002
389.836	-0.0006
390.201	0.0011
390.566	0.0006
390.932	0.0007
391.297	-0.0002
391.662	-0.0006
392.027	-0.0014
392.392	-0.0018
392.757	-0.0021
393.122	-0.0017
393.487	-0.0031
393.852	-0.0019
394.217	-0.0025
394.582	-0.0012
394.946	0.0005
395.311	0.0025
395.676	0.0026
396.04	-0.0027
396.405	-0.0037
396.77	-0.0037
397.134	0.0005
397.499	0.0006
397.863	-0.0002
398.227	-0.0016
398.592	-0.0005
398.956	0.0009
399.32	0.0028
399.685	0.002
400.049	0.0027
400.413	0.0026
400.777	0.0012
401.141	0.0037
401.505	0.0026
401.869	0.001
402.233	-0.0046
402.597	-0.0057
402.961	-0.0041
403.325	-0.0034
403.689	-0.0019
404.053	-0.0042
404.416	-0.0051
404.78	-0.0059
405.144	-0.0043
405.507	-0.0016
405.871	-0.0031
406.234	-0.0001
406.598	-0.0025
406.961	0.0002
407.325	-0.001
407.688	-0.001
408.051	-0.0013
408.415	0.0001
408.778	0.0013
409.141	0.0005
409.504	0.0003
409.867	-0.0001
410.23	-0.0009
410.593	-0.0032
410.956	-0.0009
411.319	0.0025
411.682	0.0025
412.045	0.0012
412.408	-0.0011
412.771	-0.0006
413.134	-0.001
413.496	-0.0013
413.859	-0.0013
414.222	-0.0006
414.584	-0.0014
414.947	-0.0003
415.309	-0.0011
415.672	-0.0002
416.034	-0.0012
416.396	-0.0003
416.759	-0.0011
417.121	-0.0009
417.483	-0.002
417.846	-0.001
418.208	-0.0009
418.57	-0.0003
418.932	-0.0008
419.294	-0.0008
419.656	-0.0022
420.018	-0.0003
420.38	0.0013
420.742	0.0008
421.104	-0.0007
421.466	-0.0045
421.827	-0.0025
422.189	-0.0044
422.551	-0.0021
422.912	-0.0026
423.274	0.0006
423.636	0.0026
423.997	0.003
424.359	0.0022
424.72	0.0016
425.081	-0.0004
425.443	-0.0034
425.804	-0.0052
426.165	-0.0048
426.527	-0.0058
426.888	-0.0055
427.249	-0.0029
427.61	0.0026
427.971	0.0006
428.332	-0.0024
428.693	-0.0071
429.054	-0.005
429.415	-0.0025
429.776	-0.0014
430.137	-0.0027
430.498	-0.0044
430.858	-0.003
431.219	-0.0001
431.58	0.0003
431.94	0.0006
432.301	0.0012
432.661	-0.0015
433.022	-0.0021
433.382	-0.0019
433.743	-0.0019
434.103	-0.0024
434.463	-0.0089
434.824	-0.008
435.184	-0.0082
435.544	-0.0061
435.904	-0.0036
436.264	-0.0031
436.624	-0.0001
436.985	0.0025
437.345	0.0033
437.704	0.0029
438.064	-0.0001
438.424	-0.0029
438.784	-0.0047
439.144	0.0012
439.504	0
439.863	-0.0014
440.223	-0.0086
440.583	-0.0058
440.942	-0.0017
441.302	-0.0027
441.661	-0.004
442.021	-0.0075
442.38	-0.0065
442.739	-0.0054
443.099	-0.0061
443.458	-0.0041
443.817	-0.0012
444.176	0.002
444.536	0.0005
444.895	-0.0016
445.254	-0.0022
445.613	-0.0011
445.972	-0.0009
446.331	0.0002
446.69	-0.0031
447.049	-0.0023
447.407	-0.0036
447.766	-0.0007
448.125	-0.0016
448.484	-0.0013
448.842	0.0014
449.201	0.0017
449.559	0.0013
449.918	-0.0029
450.276	-0.003
450.635	-0.0026
450.993	-0.0039
451.352	-0.0055
451.71	-0.0065
452.068	-0.0046
452.426	-0.0018
452.785	-0.0024
453.143	-0.0002
453.501	-0.0011
453.859	0.0016
454.217	0.0006
454.575	-0.0002
454.933	-0.0008
455.291	-0.0003
455.649	-0.0017
456.006	-0.0046
456.364	-0.0023
456.722	-0.0043
457.079	-0.002
457.437	-0.0028
457.795	0.0008
458.152	0.0021
458.51	-0.0004
458.867	-0.0009
459.225	-0
459.582	0.0029
459.939	0.0009
460.297	-0.0021
460.654	-0.0054
461.011	-0.0045
461.368	-0.0018
461.725	-0.0009
462.082	0.0001
462.44	-0.0004
462.797	-0.0005
463.153	0.0003
463.51	-0.0015
463.867	-0.0006
464.224	-0.0062
464.581	-0.0073
464.938	-0.0085
465.294	-0.0027
465.651	-0.0031
466.008	-0.0031
466.364	-0.0056
466.721	-0.0041
467.077	-0.0039
467.434	-0.0005
467.79	0
468.146	0.0016
468.503	0.0039
468.859	-0.0016
469.215	-0.0065
469.571	-0.0112
469.927	-0.0063
470.284	-0.004
470.64	0.0015
470.996	0.0023
471.352	0.0042
471.707	-0.0009
472.063	-0.0022
472.419	-0.0036
472.775	-0.0042
473.131	-0.0002
473.486	-0.0005
473.842	0.0003
474.198	-0.0024
474.553	-0.0017
474.909	-0.0013
475.264	-0.003
475.62	-0.0022
475.975	-0.003
476.331	-0.0007
476.686	-0.0006
477.041	0.0023
477.396	0.0047
477.752	0.0069
478.107	0.0039
478.462	-0.0002
478.817	-0.0023
479.172	0.0021
479.527	0.0042
479.882	0.0025
480.237	-0.0015
480.591	-0.0015
480.946	-0.0014
481.301	-0.0004
481.656	-0.0045
482.01	-0.0022
482.365	-0.0057
482.72	-0.0012
483.074	-0.0006
483.429	0.0011
483.783	-0.0022
484.137	0.0001
484.492	0.0025
484.846	0.0038
485.2	-0.0032
485.555	-0.0064
485.909	-0.0063
486.263	-0.0022
486.617	-0.0029
486.971	-0.0011
487.325	-0
487.679	0.0056
488.033	0.0014
488.387	0.0056
488.741	0.0028
489.094	-0.002
489.448	-0.0075
489.802	-0.003
490.156	0.0031
490.509	-0.004
490.863	-0.0109
491.216	-0.009
491.57	-0.0027
491.923	-0.0012
492.277	-0.0043
492.63	-0.0057
492.983	-0.0057
493.337	-0.0059
493.69	-0.0035
494.043	-0.0029
494.396	-0.0032
494.749	-0.0049
495.102	-0.0082
495.455	-0.0069
495.808	-0.0085
496.161	-0.005
496.514	-0.0063
496.867	-0.0045
497.22	-0.0055
497.572	-0.006
497.925	-0.0057
498.278	-0.0076
498.63	-0.0012
498.983	-0.001
499.335	0.001
499.688	-0.0065
500.04	-0.0075
500.393	-0.0094
500.745	-0.0056
501.097	-0.003
501.449	-0.004
501.802	-0.0058
502.154	-0.0071
502.506	-0.0059
502.858	-0.0036
503.21	-0.0041
503.562	-0.0039
503.914	-0.0004
504.266	-0.0006
504.618	-0.0023
504.969	-0.0033
505.321	-0.0062
505.673	-0.0033
506.025	-0.0053
506.376	-0.0007
506.728	-0.004
507.079	-0.0055
507.431	-0.0074
507.782	-0.0057
508.134	-0.0052
508.485	-0.0075
508.836	-0.009
509.188	-0.0088
509.539	-0.0071
509.89	-0.0078
510.241	-0.0083
510.592	-0.0022
510.943	-0.002
511.294	-0.0032
511.645	-0.0099
511.996	-0.0076
512.347	-0.0038
512.698	-0.0005
513.049	-0.001
513.399	-0.0058
513.75	-0.0089
514.101	-0.0072
514.451	-0.0021
514.802	-0.0009
515.152	-0.0025
515.503	-0.0031
515.853	-0.0031
516.203	-0.0053
516.554	-0.0061
516.904	-0.0033
517.254	-0.0011
517.604	-0.003
517.955	-0.0086
518.305	-0.0055
518.655	-0.0041
519.005	-0.0004
519.355	0.0001
519.705	-0.0036
520.055	-0.0058
520.404	-0.0073
520.754	-0.001
521.104	0.0012
521.454	0.002
521.803	-0.0006
522.153	-0.0016
522.502	-0.0059
522.852	-0.0077
523.201	-0.0076
523.551	-0.0056
523.9	-0.0028
524.249	0.0017
524.599	-0.0007
524.948	-0.0027
525.297	-0.003
525.646	-0.0026
525.995	-0.0039
526.344	-0.0085
526.694	-0.0051
527.042	-0.0045
527.391	-0.0041
527.74	-0.0054
528.089	-0.0033
528.438	-0.0022
528.787	-0.0024
529.135	-0.0024
529.484	0.0007
529.833	0.0029
530.181	0.001
530.53	-0.0045
530.878	-0.0089
531.227	-0.0051
531.575	0.0013
531.923	-0.001
532.271	-0.0027
532.62	-0.0055
532.968	-0.0022
533.316	-0.003
533.664	-0.0017
534.012	0.0014
534.36	0.0048
534.708	0.0003
535.056	-0.0042
535.404	-0.01
535.752	-0.0076
536.1	-0.0073
536.447	-0.005
536.795	-0.0054
537.143	-0.0007
537.49	-0.0019
537.838	-0.0066
538.185	-0.0092
538.533	-0.0111
538.88	-0.0069
539.228	-0.0093
539.575	-0.006
539.922	-0.0067
540.269	-0.0004
540.617	-0.0015
540.964	-0.0034
541.311	-0.0079
541.658	-0.003
542.005	-0.0015
542.352	-0.0034
542.699	-0.0084
543.045	-0.0108
543.392	-0.0082
543.739	-0.0104
544.086	-0.0082
544.432	-0.0111
544.779	-0.0082
545.126	-0.0114
545.472	-0.0098
545.819	-0.0078
546.165	-0.0048
546.512	-0.0011
546.858	0.0018
547.204	0.0038
547.55	0.0016
547.897	-0.0022
548.243	-0.0088
548.589	-0.0066
548.935	-0.0086
549.281	-0.0052
549.627	-0.0079
549.973	-0.0049
550.319	-0.0026
550.665	-0.0012
551.01	-0.0058
551.356	-0.0115
551.702	-0.0169
552.048	-0.0214
552.393	-0.0156
552.739	-0.0091
553.084	-0.0008
553.43	-0.0036
553.775	-0.0082
554.12	-0.0086
554.466	-0.002
554.811	0.0006
555.156	-0.0009
555.502	-0.0023
555.847	-0.003
556.192	-0.0053
556.537	-0.0101
556.882	-0.0107
557.227	-0.0139
557.572	-0.0077
557.917	-0.0011
558.261	-0.0026
558.606	-0.0094
558.951	-0.0151
559.295	-0.014
559.64	-0.0103
559.985	-0.0124
560.329	-0.0088
560.674	-0.0073
561.018	-0.0077
561.363	-0.0097
561.707	-0.013
562.051	-0.0108
562.395	-0.0009
562.74	0.0006
563.084	0.0026
563.428	-0.0003
563.772	0.0016
564.116	-0.0036
564.46	-0.0078
564.804	-0.0048
565.148	-0.0079
565.492	-0.0043
565.835	-0.0054
566.179	0.001
566.523	-0.0049
566.866	-0.011
567.21	-0.0092
567.554	-0.0049
567.897	-0.0016
568.24	-0.0071
568.584	-0.0074
568.927	-0.0075
569.271	-0.0078
569.614	-0.0074
569.957	-0.0053
570.3	-0.0007
570.643	-0.0023
570.986	-0.0041
571.329	0.0007
571.672	0.0038
572.015	0.0008
572.358	-0.0033
572.701	0.0005
573.044	-0.003
573.387	-0.0031
573.729	-0.0023
574.072	0.0015
574.414	0.002
574.757	0.0005
575.099	-0.0116
575.442	-0.0187
575.784	-0.0057
576.127	0.0053
576.469	0.006
576.811	-0.0046
577.153	-0.0034
577.496	-0.004
577.838	-0.0054
578.18	-0.018
578.522	-0.0176
578.864	-0.018
579.206	0.0024
579.548	0.0025
579.889	-0.0097
580.231	0.0016
580.573	0.0117
580.915	0.0082
581.256	-0.0149
581.598	-0.0325
581.939	-0.0339
582.281	-0.0077
582.622	-0.0094
582.964	-0.0034
583.305	-0.0156
583.646	-0.002
583.988	0.0333
584.329	0.0178
584.67	0.0032
585.011	-0.0255
585.352	-0.0336
585.693	-0.0217
586.034	-0.0279
586.375	-0.0207
586.716	-0.0149
587.057	-0.0062
587.398	0.0096
587.738	0.0158
588.079	0.0052
588.42	-0.0009
588.76	-0.0206
589.101	-0.0174
589.441	-0.0231
589.782	-0.0115
590.122	-0.0013
590.463	-0.0007
590.803	-0.0109
591.143	-0.0121
591.483	-0.0178
591.823	-0.019
592.164	-0.02
592.504	-0.0049
592.844	-0.0005
593.184	-0.0056
593.523	-0.0164
593.863	-0.0136
594.203	-0.0077
594.543	0.0011
594.883	-0.0055
595.222	0.0019
595.562	0.0144
595.901	0.0105
596.241	-0.0018
596.58	-0.0185
596.92	-0.0233
597.259	-0.0268
597.599	-0.0148
597.938	0.0019
598.277	0.002
598.616	-0.0156
598.955	-0.0211
599.295	-0.017
599.634	0.0005
599.973	0.0029
600.312	0.0097
600.65	-0.0059
600.989	-0.0082
601.328	-0.0047
601.667	0.0181
602.005	0.002
602.344	-0.0063
602.683	-0.0098
603.021	-0.0008
603.36	-0.0097
603.698	-0.0188
604.037	-0.0187
604.375	-0.0134
604.713	-0.0193
605.052	-0.0176
605.39	-0.0157
605.728	-0.0106
606.066	0.0092
606.404	0.0109
606.742	0.0044
607.08	-0.0082
607.418	-0.0171
607.756	-0.0074
608.094	-0.0012
608.431	0.0032
608.769	0.0075
609.107	-0.0103
609.444	-0.0046
609.782	-0.0152
610.12	0.0006
610.457	-0.0037
610.794	-0.0167
611.132	-0.0186
611.469	-0.0203
611.806	-0.0139
612.144	-0.0216
612.481	-0.0132
612.818	0.0011
613.155	-0.0054
613.492	-0.011
613.829	-0.0135
614.166	-0.0003
614.503	-0.0028
614.84	-0.0097
615.176	-0.011
615.513	-0.0049
615.85	-0.0025
616.187	-0.0001
616.523	-0.0095
616.86	-0.0121
617.196	-0.0051
617.533	0.0134
617.869	0.0083
618.205	-0.004
618.542	-0.0211
618.878	-0.0284
619.214	-0.0189
619.55	-0.0122
619.886	-0.0038
620.222	-0.0171
620.558	-0.0117
620.894	-0.003
621.23	-0.0021
621.566	-0.01
621.902	-0.0132
622.238	-0.0145
622.573	0.0023
622.909	-0.0057
623.244	-0.0035
623.58	-0.0229
623.916	-0.024
624.251	-0.007
624.586	0.0104
624.922	0.0122
625.257	-0.0097
625.592	-0.0192
625.927	-0.0148
626.263	-0.0084
626.598	-0.0054
626.933	-0.0037
627.268	0.0036
627.603	-0.0069
627.938	-0.0146
628.272	-0.0145
628.607	-0.0144
628.942	-0.0115
629.277	-0.0174
629.611	-0.0065
629.946	0.0053
630.281	0.0007
630.615	-0.0033
630.949	-0.0182
631.284	-0.0121
631.618	-0.0027
631.953	0.0066
632.287	0.0033
632.621	-0.006
632.955	-0.0115
633.289	-0.0132
633.623	-0.0135
633.957	-0.0119
634.291	-0.0098
634.625	-0.0056
634.959	-0.0127
635.293	-0.0065
635.627	-0.0048
635.96	-0.0003
636.294	-0.0033
636.627	-0.003
636.961	0.0029
637.294	0.0003
637.628	-0.0066
637.961	-0.0085
638.295	-0.0031
638.628	0.0057
638.961	0.0066
639.294	0.003
639.628	-0.0073
639.961	-0.0107
640.294	-0.009
640.627	-0.0044
640.96	-0.0019
641.293	0.001
641.625	-0.0013
641.958	-0.0084
642.291	-0.0151
642.624	-0.0094
642.956	-0.0065
643.289	-0.0059
643.621	-0.0071
643.954	-0.0045
644.286	-0.0037
644.619	-0.0041
644.951	-0.0049
645.283	-0.0056
645.616	-0.0062
645.948	-0.0069
646.28	-0.002
646.612	-0.0033
646.944	-0.0026
647.276	-0.0066
647.608	-0.0005
647.94	0.001
648.272	0.0002
648.603	-0.0063
648.935	-0.0063
649.267	-0.0061
649.598	-0.0078
649.93	-0.0133
650.261	-0.0106
650.593	-0.002
650.924	0.0109
651.256	0.0098
651.587	0.0009
651.918	-0.0063
652.25	-0.0096
652.581	-0.0098
652.912	-0.0113
653.243	-0.0111
653.574	-0.0062
653.905	-0.0024
654.236	-0.0035
654.567	-0.0056
654.897	-0.0103
655.228	-0.0112
655.559	-0.007
655.89	-0.0026
656.22	-0.0041
656.551	-0.009
656.881	-0.0123
657.212	-0.009
657.542	-0.0062
657.872	0.0004
658.203	0.0118
658.533	0.1243
658.863	0.0619
659.193	0.0077
659.523	-0.0509
659.853	-0.1048
660.183	-0.0606
660.513	-0.0265
660.843	-0.0119
661.173	-0.0061
661.503	-0.0034
661.833	-0.0043
662.162	-0.0066
662.492	-0.0102
662.822	-0.0116
663.151	-0.0122
663.481	-0.0075
663.81	-0.0009
664.139	0.0048
664.469	0.0019
664.798	-0.0004
665.127	-0.0065
665.456	-0.0058
665.785	-0.0055
666.114	-0.0034
666.443	-0.0027
666.772	-0.0022
667.101	-0.0004
667.43	0.0031
667.759	0.0015
668.088	0.0053
668.416	-0.0037
668.745	-0.0029
669.074	-0.0084
669.402	-0.0029
669.731	-0.0043
670.059	-0.003
670.388	-0.0062
670.716	-0.0066
671.044	-0.0082
671.372	-0.0103
671.701	-0.0084
672.029	-0.0009
672.357	0.0049
672.685	0.0068
673.013	0.0086
673.341	0.0016
673.669	-0.0009
673.996	-0.0048
674.324	0.0153
674.652	0.0112
674.98	0.0055
675.307	-0.0092
675.635	-0.0127
675.962	-0.0135
676.29	-0.0141
676.617	-0.0097
676.945	-0.0076
677.272	-0.0081
677.599	-0.0053
677.926	-0.0043
678.253	-0.0014
678.581	-0.0083
678.908	-0.0041
679.235	0.0033
679.561	0.0039
679.888	-0.0021
680.215	-0.0073
680.542	0.0086
680.869	0.0022
681.195	-0.0038
681.522	-0.0118
681.849	0.0002
682.175	0.0097
682.502	0.0119
682.828	0.0042
683.154	-0.0059
683.481	-0.0106
683.807	-0.0123
684.133	0.0036
684.459	0.0024
684.785	0.0089
685.111	-0.005
685.437	-0.0071
685.763	-0.0117
686.089	-0.0059
686.415	0.001
686.741	-0.0034
687.067	0.0007
687.392	-0.003
687.718	0.0016
688.043	0.0021
688.369	0.0032
688.694	-0.0013
689.02	-0.0088
689.345	-0.0133
689.67	-0.009
689.996	-0.0032
690.321	0.0009
690.646	-0.0024
690.971	-0.0045
691.296	-0.0048
691.621	-0.0057
691.946	-0.0045
692.271	0.0008
692.596	0.0024
692.921	-0.0035
693.245	-0.0163
693.57	-0.0099
693.895	0.0018
694.219	0.0084
694.544	-0.0015
694.868	-0.0099
695.193	-0.009
695.517	0.0005
695.841	0.0036
696.166	-0.0004
696.49	-0.005
696.814	-0.0077
697.138	-0.0035
697.462	0.0024
697.786	0.0067
698.11	0.0126
698.434	0.0016
698.758	-0.0074
699.081	-0.019
699.405	-0.0093
699.729	0.0145
700.052	0.0137
700.376	0.0032
700.7	-0.0142
701.023	-0.0199
701.346	-0.0127
701.67	-0.0105
701.993	-0.0042
702.316	-0.0035
702.639	-0.0039
702.963	-0.0044
703.286	-0.0105
703.609	-0.0047
703.932	-0.007
704.255	-0.0061
704.578	-0.0079
704.9	-0.0044
705.223	-0.0043
705.546	-0.0019
705.868	-0.0074
706.191	-0.0071
706.514	-0.0132
706.836	-0.011
707.159	-0.0031
707.481	0.0013
707.803	-0.0012
708.126	-0.009
708.448	-0.0095
708.77	-0.0016
709.092	0.0024
709.414	0.012
709.736	0.0145
710.058	0.0101
710.38	-0.0027
710.702	-0.0091
711.024	-0.0148
711.345	-0.016
711.667	-0.0157
711.989	-0.0095
712.31	-0.0006
712.632	0.0006
712.953	-0.0031
713.275	-0.0054
713.596	-0.0019
713.917	-0.0046
714.239	-0.0082
714.56	-0.012
714.881	-0.0048
715.202	-0.0011
715.523	0.0099
715.844	0.0066
716.165	0.0096
716.486	-0.0002
716.807	0.0015
717.128	-0.0028
717.448	-0.0073
717.769	-0.0119
718.09	-0.0133
718.41	-0.015
718.731	-0.0147
719.051	-0.0156
719.372	-0.0116
719.692	0.0001
720.012	0.0047
720.332	0.0038
720.653	0.0044
720.973	0.0092
721.293	0.0003
721.613	-0.0086
721.933	-0.0182
722.253	-0.0031
722.573	-0.0054
722.892	-0.0052
723.212	-0.011
723.532	-0.0033
723.851	-0.0034
724.171	-0.0047
724.491	-0.0034
724.81	-0.0009
725.129	-0.0008
725.449	-0.0039
725.768	-0.0049
726.087	-0.0004
726.407	-0.0034
726.726	-0.0054
727.045	-0.0129
727.364	-0.0054
727.683	-0.0057
728.002	0.0027
728.321	-0.0034
728.64	-0.0041
728.958	-0.0051
729.277	-0.0064
729.596	-0.0071
729.914	-0.0101
730.233	-0.0062
730.551	0.0011
730.87	0.0012
731.188	-0.0002
731.507	-0.0082
731.825	-0.0114
732.143	-0.0139
732.461	-0.0072
732.779	-0.006
733.097	-0.0036
733.415	0.0018
733.733	0.0089
734.051	-0.0011
734.369	-0.0072
734.687	-0.021
735.005	-0.0165
735.322	-0.015
735.64	-0.0012
735.957	0.0001
736.275	-0.0033
736.592	-0.0016
736.91	-0.0039
737.227	-0.003
737.544	-0.0137
737.862	-0.0109
738.179	-0.0093
738.496	-0.0018
738.813	-0.0055
739.13	-0.0163
739.447	-0.0172
739.764	-0.005
740.081	0.0026
740.398	-0.005
740.714	-0.012
741.031	-0.0079
741.348	-0.0017
741.664	0.0052
741.981	0.0092
742.297	0.0025
742.614	-0.0106
742.93	-0.0203
743.246	-0.0161
743.563	-0.006
743.879	-0.0033
744.195	-0.007
744.511	-0.0057
744.827	-0.0055
745.143	0.0067
745.459	0.0069
745.775	0.0016
746.091	-0.008
746.406	-0.0131
746.722	-0.0114
747.038	-0.0135
747.353	-0.0077
747.669	-0.0031
747.984	-0.0038
748.3	-0.0041
748.615	-0.0052
748.93	0.0031
749.246	-0.0035
749.561	-0.0022
749.876	-0.0032
750.191	0.0003
750.506	-0.0033
750.821	-0.0051
751.136	-0.0016
751.451	0.0029
751.766	0.0019
752.08	-0.001
752.395	0.0003
752.71	0.002
753.024	0.0015
753.339	-0.0046
753.653	-0.0055
753.968	0.0009
754.282	0.0062
754.596	0.0044
754.911	0.0005
755.225	0.0044
755.539	0.0016
755.853	-0.0033
756.167	-0.0074
756.481	-0.0051
756.795	-0.0075
757.109	-0.0087
757.423	-0.0017
757.736	0.0039
758.05	0.0026
758.364	-0.0017
758.677	-0.0036
758.991	-0.0033
759.304	0.0015
759.618	0.0061
759.931	0.0038
760.244	0.009
760.558	0.0003
760.871	-0.0054
761.184	-0.0238
761.497	-0.0284
761.81	-0.0178
762.123	-0.0035
762.436	0.0026
762.749	-0.0023
763.062	-0.0063
763.374	0.0005
763.687	-0.0033
764	-0.0029
764.312	-0.0152
764.625	-0.0132
764.937	-0.0214
765.25	-0.0143
765.562	-0.0052
765.874	-0.0009
766.186	0.0034
766.499	-0.0055
766.811	-0.0026
767.123	0.0021
767.435	0.0039
767.747	0.0026
768.059	-0.0082
768.37	-0.009
768.682	-0.0147
768.994	-0.018
769.306	-0.016
769.617	-0.0134
769.929	-0.0065
770.24	-0.0074
770.552	0.0008
770.863	0.0057
771.174	0.0018
771.486	-0.002
771.797	-0.0113
772.108	-0.0172
772.419	-0.0222
772.73	-0.014
773.041	-0.0052
773.352	-0.0032
773.663	-0.014
773.974	-0.0116
774.285	-0.0178
774.595	-0.0111
774.906	-0.0121
775.217	-0.0014
775.527	0.0018
775.838	0.0013
776.148	-0.0007
776.458	-0.0035
776.769	-0.0042
777.079	-0.0057
777.389	-0.0038
777.699	0.0001
778.009	-0.0021
778.319	-0.0014
778.629	-0.0114
778.939	-0.0056
779.249	-0.006
779.559	0.0018
779.869	0.0004
780.178	-0.0031
780.488	-0.0064
780.798	-0.0058
781.107	-0.0027
781.417	0.0053
781.726	0.0001
782.035	-0.0003
782.345	-0.0086
782.654	-0.0016
782.963	-0.0025
783.272	-0.0021
783.581	-0.0031
783.89	0.0048
784.199	0.0002
784.508	-0.0063
784.817	-0.0202
785.126	-0.0155
785.434	-0.0099
785.743	-0.0075
786.052	-0.0054
786.36	-0.0077
786.669	-0.001
786.977	-0.0026
787.285	-0.001
787.594	-0.0011
787.902	0.0006
788.21	-0.001
788.518	0.0025
788.826	0.0036
789.135	0.0004
789.442	-0.0079
789.75	-0.0119
790.058	-0.0096
790.366	-0.0078
790.674	-0.0101
790.981	-0.006
791.289	-0.0017
791.597	-0.0007
791.904	-0.0061
792.212	-0.0098
792.519	-0.0108
792.826	-0.0007
793.134	-0.0024
793.441	0.0026
793.748	0.0002
794.055	0.0069
794.362	0.0075
794.669	-0.0019
794.976	-0.0058
795.283	-0.0146
795.59	-0.0093
795.897	-0.0153
796.203	-0.0097
796.51	0.0069
796.817	0.0183
797.123	0.0062
797.43	-0.0085
797.736	-0.0128
798.042	-0.0099
798.349	-0.006
798.655	-0.0136
798.961	-0.001
799.267	-0.0027
799.573	0.0015
799.879	-0.0027
800.185	0.0004
800.491	0.0011
800.797	0.0004
801.103	-0.0029
801.408	-0.0053
801.714	-0.0029
802.02	-0.0096
802.325	-0.0051
802.631	-0.0077
802.936	0.005
803.242	0.0038
803.547	0.0009
803.852	-0.0047
804.157	-0.0067
804.462	-0.0078
804.768	-0.0104
805.073	-0.0119
805.378	-0.0043
805.682	0.0013
805.987	0.007
806.292	0.0029
806.597	-0.0014
806.902	-0.0009
807.206	-0.0076
807.511	-0.0107
807.815	-0.0161
808.12	-0.001
808.424	0.0032
808.728	0.0086
809.033	0.0058
809.337	-0.0034
809.641	-0.0137
809.945	-0.0165
810.249	-0.0009
810.553	0.0015
810.857	0.0037
811.161	-0.0076
811.465	-0.0067
811.768	-0.0109
812.072	-0.0064
812.376	-0.0033
812.679	0.0056
812.983	0.0063
813.286	0.0022
813.59	-0.006
813.893	-0.0067
814.196	-0.001
814.499	0.001
814.803	0.0036
815.106	-0.0045
815.409	-0.0114
815.712	-0.0142
816.015	-0.0048
816.318	0.0047
816.62	0.0031
816.923	-0.0081
817.226	-0.0116
817.528	-0.0083
817.831	0.0033
818.133	-0.0022
818.436	-0.0028
818.738	-0.006
819.041	0.0017
819.343	-0.0027
819.645	0.0021
819.947	0.0071
820.249	0.0094
820.551	0.004
820.853	-0.0119
821.155	-0.007
821.457	-0.0061
821.759	-0.0009
822.061	-0.0069
822.362	-0.0003
822.664	-0.0042
822.966	0.0002
823.267	-0.0024
823.569	0.0034
823.87	-0.0065
824.171	-0.0163
824.473	-0.0212
824.774	-0.0168
825.075	-0.012
825.376	-0.007
825.677	-0.0042
825.978	-0.0014
826.279	-0.0041
826.58	-0.0144
826.881	-0.0155
827.181	-0.018
827.482	-0.0111
827.783	-0.0118
828.083	-0.0045
828.384	-0.0045
828.684	-0.0101
828.985	-0.0083
829.285	0.0006
829.585	0.0088
829.885	0.0066
830.185	-0.0024
830.486	-0.0053
830.786	-0.0129
831.086	-0.0156
831.385	-0.0213
831.685	-0.0151
831.985	-0.0119
832.285	-0.0128
832.585	-0.0153
832.884	-0.0146
833.184	-0.0146
833.483	-0.0187
833.783	-0.0148
834.082	-0.0027
834.381	0.007
834.681	0.0054
834.98	0.0001
835.279	-0.0145
835.578	-0.0097
835.877	-0.0144
836.176	-0.0056
836.475	-0.0139
836.774	-0.0083
837.072	0.0001
837.371	0.0112
837.67	0.016
837.968	0.0169
838.267	0.0036
838.565	-0.004
838.864	-0.0091
839.162	-0.0099
839.46	-0.014
839.759	-0.0116
840.057	-0.0109
840.355	0.0002
840.653	-0.0092
840.951	-0.0064
841.249	-0.0218
841.547	-0.0232
841.845	-0.0184
842.142	-0.0044
842.44	0.0024
842.738	0.0032
843.035	0.0091
843.333	0.0044
843.63	-0.0088
843.928	-0.0134
844.225	-0.0203
844.522	-0.0072
844.82	-0.0177
845.117	0.0022
845.414	0.0016
845.711	0.0114
846.008	0.0006
846.305	-0.0103
846.602	-0.0115
846.898	-0.0152
847.195	-0.0231
847.492	-0.0252
847.788	-0.0225
848.085	-0.0196
848.382	-0.0177
848.678	-0.0118
848.974	0.0117
849.271	0.0139
849.567	0.0034
849.863	-0.0122
850.159	-0.0152
850.455	0.0072
850.751	0.0156
851.047	0.0233
851.343	0.0138
851.639	0.0032
851.935	-0.0023
852.23	-0.0056
852.526	-0.0057
852.822	-0.0049
853.117	-0.0134
853.413	-0.0103
853.708	-0.0128
854.003	-0.0028
854.299	-0.0138
854.594	-0.0127
854.889	-0.0093
855.184	-0.0099
855.479	-0.0097
855.774	-0.0087
856.069	0.0085
856.364	0.0199
856.659	0.0117
856.954	0.0138
857.248	-0.0006
857.543	-0.0225
857.837	-0.0461
858.132	-0.0271
858.426	-0.009
858.721	0.0034
859.015	-0.0007
859.309	0.0087
859.604	0.0181
859.898	-0.0021
860.192	-0.0084
860.486	-0.0188
860.78	-0.0391
861.074	-0.047
861.367	-0.0609
861.661	-0.0169
861.955	0.0008
862.248	0.0335
862.542	-0.0151
862.836	-0.0347
863.129	-0.0344
863.422	-0.0251
863.716	-0.0241
864.009	-0.0526
864.302	-0.0204
864.595	-0.0172
864.889	-0.0009
865.182	-0.0218
865.475	-0.0241
865.767	-0.0321
866.06	-0.0124
866.353	-0.0125
866.646	0.0031
866.938	-0.0243
867.231	-0.0213
867.524	-0.0144
867.816	0.0205
868.109	0.0384
868.401	0.0264
868.693	0.0164
868.985	0.0029
869.278	-0.003
869.57	-0.0195
869.862	-0.0265
870.154	-0.0291
870.446	0.0078
870.738	0.0123
871.029	0.0148
871.321	-0.0176
871.613	-0.0117
871.904	-0.0376
872.196	-0.0306
872.487	-0.0727
872.779	-0.0303
873.07	-0.0214
873.362	0.0213
873.653	0.0099
873.944	0.0299
874.235	0.0306
874.526	0.0362
874.817	-0.0016
875.108	-0.0288
875.399	0.0015
875.69	0.0152
875.981	0.0316
876.271	-0.0177
876.562	-0.0168
876.853	0.0006
877.143	0.0096
877.434	0.0164
877.724	0.0203
878.014	0.029
878.305	0.0273
878.595	-0.008
878.885	-0.0165
879.175	-0.011
879.465	0.004
879.755	-0.009
880.045	-0.0097
880.335	0.0021
880.624	0.0329
880.914	0.0329
