Data from 30SS01FU_071417_1a_Absorbance_21-19-35-815.txt Node
Date: Tue Jul 18 21:19:35 MDT 2017
User: Tank Lab
Spectrometer: FLMS01220
Trigger mode: 0
Integration Time (sec): 1.000000E-1
Scans to average: 10
Electric dark correction enabled: true
Nonlinearity correction enabled: false
Boxcar width: 1
XAxis mode: Wavelengths
Number of Pixels in Spectrum: 2048
>>>>>Begin Spectral Data<<<<<
179.47	-0
179.856	-0
180.241	1.7692
180.626	-0
181.011	-0
181.396	-0
181.781	-0
182.166	0.1631
182.551	-0
182.936	0.5005
183.321	-0
183.706	0.2707
184.091	0.3192
184.476	-0
184.86	-0
185.245	0.6549
185.63	-0
186.015	-0
186.399	-0.7553
186.784	0.5925
187.169	0.7671
187.553	-0.2391
187.938	-0.1196
188.322	0.0498
188.707	0.0769
189.091	0.0185
189.475	-0.0054
189.86	0.0053
190.244	0.0615
190.629	0.074
191.013	0.0923
191.397	0.1232
191.781	0.1582
192.165	0.1791
192.55	0.1896
192.934	0.2125
193.318	0.2279
193.702	0.2309
194.086	0.2215
194.47	0.2187
194.854	0.2142
195.238	0.2076
195.622	0.2062
196.006	0.1933
196.389	0.187
196.773	0.1768
197.157	0.1743
197.541	0.1683
197.924	0.161
198.308	0.1521
198.692	0.1453
199.075	0.1405
199.459	0.1416
199.843	0.1397
200.226	0.1358
200.61	0.1285
200.993	0.1226
201.376	0.1167
201.76	0.1149
202.143	0.1166
202.527	0.1187
202.91	0.1182
203.293	0.1103
203.676	0.1054
204.059	0.1003
204.443	0.1036
204.826	0.1042
205.209	0.104
205.592	0.1027
205.975	0.0998
206.358	0.0981
206.741	0.0972
207.124	0.0971
207.507	0.0976
207.89	0.0966
208.273	0.0951
208.655	0.0936
209.038	0.0917
209.421	0.0913
209.804	0.0919
210.186	0.0926
210.569	0.0941
210.951	0.0939
211.334	0.0926
211.717	0.0898
212.099	0.0874
212.482	0.0858
212.864	0.0835
213.246	0.084
213.629	0.0838
214.011	0.084
214.393	0.0837
214.776	0.0811
215.158	0.081
215.54	0.0781
215.922	0.08
216.305	0.0781
216.687	0.0771
217.069	0.0751
217.451	0.0741
217.833	0.0759
218.215	0.0749
218.597	0.074
218.979	0.0711
219.361	0.0717
219.742	0.07
220.124	0.0704
220.506	0.0674
220.888	0.0677
221.27	0.0647
221.651	0.0643
222.033	0.0634
222.415	0.0627
222.796	0.0614
223.178	0.0604
223.559	0.0593
223.941	0.0578
224.322	0.0545
224.704	0.0551
225.085	0.0539
225.466	0.0542
225.848	0.0521
226.229	0.052
226.61	0.053
226.992	0.0529
227.373	0.0518
227.754	0.0493
228.135	0.048
228.516	0.0479
228.897	0.0481
229.278	0.0469
229.659	0.0447
230.04	0.0429
230.421	0.0407
230.802	0.0406
231.183	0.0407
231.564	0.0418
231.944	0.0405
232.325	0.0392
232.706	0.0382
233.087	0.0378
233.467	0.0378
233.848	0.0375
234.229	0.0373
234.609	0.0361
234.99	0.034
235.37	0.0333
235.751	0.0337
236.131	0.0347
236.511	0.0338
236.892	0.0341
237.272	0.0326
237.652	0.033
238.033	0.0311
238.413	0.0316
238.793	0.0299
239.173	0.0307
239.553	0.03
239.933	0.0312
240.313	0.0296
240.694	0.0283
241.074	0.0274
241.453	0.0285
241.833	0.0296
242.213	0.0298
242.593	0.0289
242.973	0.0294
243.353	0.0282
243.732	0.0285
244.112	0.028
244.492	0.0281
244.872	0.0284
245.251	0.0298
245.631	0.031
246.01	0.0299
246.39	0.0274
246.769	0.0266
247.149	0.0261
247.528	0.0265
247.908	0.0264
248.287	0.0278
248.666	0.0287
249.045	0.0276
249.425	0.0254
249.804	0.0235
250.183	0.0256
250.562	0.0261
250.941	0.0261
251.32	0.0238
251.699	0.0248
252.078	0.0245
252.457	0.0242
252.836	0.0228
253.215	0.0241
253.594	0.0267
253.973	0.0271
254.352	0.0272
254.731	0.0271
255.109	0.0259
255.488	0.0245
255.867	0.0221
256.245	0.0238
256.624	0.022
257.002	0.023
257.381	0.0213
257.759	0.0235
258.138	0.0231
258.516	0.0242
258.895	0.0244
259.273	0.0251
259.651	0.0246
260.03	0.0238
260.408	0.0233
260.786	0.0228
261.164	0.0241
261.542	0.0235
261.921	0.0241
262.299	0.0222
262.677	0.0215
263.055	0.0216
263.433	0.0223
263.811	0.0235
264.188	0.0206
264.566	0.0195
264.944	0.0189
265.322	0.0214
265.7	0.0211
266.077	0.0213
266.455	0.0196
266.833	0.02
267.21	0.0195
267.588	0.0203
267.966	0.0198
268.343	0.0187
268.721	0.0199
269.098	0.0209
269.475	0.0217
269.853	0.0208
270.23	0.0191
270.607	0.0196
270.985	0.0188
271.362	0.0189
271.739	0.0185
272.116	0.018
272.494	0.0178
272.871	0.0171
273.248	0.0167
273.625	0.0169
274.002	0.0162
274.379	0.0171
274.756	0.018
275.132	0.0169
275.509	0.0177
275.886	0.0175
276.263	0.0207
276.64	0.0192
277.016	0.0175
277.393	0.0157
277.77	0.0155
278.146	0.0162
278.523	0.0156
278.899	0.0151
279.276	0.016
279.652	0.016
280.029	0.016
280.405	0.016
280.782	0.0169
281.158	0.017
281.534	0.0159
281.91	0.015
282.287	0.0148
282.663	0.0153
283.039	0.0157
283.415	0.015
283.791	0.015
284.167	0.015
284.543	0.0165
284.919	0.0153
285.295	0.0152
285.671	0.0145
286.047	0.0159
286.423	0.0158
286.799	0.0157
287.174	0.0155
287.55	0.0142
287.926	0.0154
288.301	0.0149
288.677	0.0144
289.053	0.0122
289.428	0.0124
289.804	0.0138
290.179	0.0151
290.555	0.0141
290.93	0.0129
291.305	0.013
291.681	0.0128
292.056	0.0147
292.431	0.0139
292.806	0.0152
293.182	0.014
293.557	0.014
293.932	0.0133
294.307	0.0115
294.682	0.012
295.057	0.0119
295.432	0.0139
295.807	0.0131
296.182	0.0121
296.557	0.0122
296.932	0.0128
297.306	0.0127
297.681	0.0117
298.056	0.0119
298.43	0.0129
298.805	0.0125
299.18	0.0123
299.554	0.011
299.929	0.0121
300.303	0.0111
300.678	0.0128
301.052	0.0131
301.427	0.0143
301.801	0.0136
302.175	0.0119
302.55	0.0108
302.924	0.0106
303.298	0.0108
303.672	0.011
304.046	0.0116
304.421	0.0107
304.795	0.0113
305.169	0.0094
305.543	0.0096
305.917	0.0075
306.291	0.0087
306.664	0.0097
307.038	0.0105
307.412	0.0098
307.786	0.0098
308.16	0.011
308.533	0.0121
308.907	0.0128
309.281	0.0132
309.654	0.0128
310.028	0.0117
310.401	0.0105
310.775	0.0104
311.148	0.01
311.522	0.0093
311.895	0.0078
312.268	0.0075
312.642	0.0084
313.015	0.0103
313.388	0.0091
313.761	0.0097
314.135	0.0073
314.508	0.0087
314.881	0.0077
315.254	0.0098
315.627	0.0099
316	0.0098
316.373	0.0092
316.746	0.0089
317.118	0.0096
317.491	0.0094
317.864	0.0088
318.237	0.0074
318.61	0.0069
318.982	0.0079
319.355	0.0083
319.727	0.0078
320.1	0.0071
320.473	0.009
320.845	0.0095
321.218	0.011
321.59	0.0099
321.962	0.0091
322.335	0.0085
322.707	0.0074
323.079	0.0095
323.452	0.0083
323.824	0.0092
324.196	0.0085
324.568	0.0092
324.94	0.0089
325.312	0.01
325.684	0.0111
326.056	0.0095
326.428	0.0082
326.8	0.0068
327.172	0.0079
327.544	0.0065
327.915	0.0064
328.287	0.0051
328.659	0.0065
329.031	0.0061
329.402	0.0064
329.774	0.005
330.145	0.006
330.517	0.0057
330.888	0.0051
331.26	0.0031
331.631	0.0046
332.003	0.0057
332.374	0.0057
332.745	0.0046
333.117	0.0045
333.488	0.0068
333.859	0.0074
334.23	0.0068
334.601	0.005
334.972	0.0041
335.343	0.0044
335.714	0.0051
336.085	0.0055
336.456	0.0052
336.827	0.0038
337.198	0.004
337.569	0.0061
337.94	0.008
338.31	0.0081
338.681	0.0071
339.052	0.0055
339.422	0.0041
339.793	0.005
340.164	0.0054
340.534	0.0044
340.905	0.0038
341.275	0.0045
341.645	0.007
342.016	0.0062
342.386	0.0055
342.756	0.0051
343.127	0.0045
343.497	0.0048
343.867	0.0047
344.237	0.0038
344.607	0.0036
344.977	0.004
345.347	0.0049
345.717	0.0027
346.087	0.002
346.457	0.0022
346.827	0.0022
347.197	0.0015
347.567	0.0001
347.936	0.0033
348.306	0.0053
348.676	0.0068
349.046	0.0063
349.415	0.0059
349.785	0.0055
350.154	0.0048
350.524	0.0048
350.893	0.0036
351.263	0.0028
351.632	0.0009
352.001	0.0017
352.371	0.0015
352.74	0.0024
353.109	0.0018
353.478	0.004
353.847	0.003
354.217	0.0031
354.586	0.0011
354.955	0.0028
355.324	0.0019
355.693	0.0015
356.062	0.0008
356.43	0.0014
356.799	0.0031
357.168	0.0033
357.537	0.0037
357.906	0.0038
358.274	0.0043
358.643	0.0044
359.011	0.0046
359.38	0.0039
359.749	0.003
360.117	0.0024
360.486	0.001
360.854	0.0015
361.222	0.0019
361.591	0.0026
361.959	0.0014
362.327	-0.0004
362.695	-0.0022
363.064	-0.0022
363.432	-0.0034
363.8	-0.001
364.168	0.0014
364.536	0.0033
364.904	0.0027
365.272	0.0013
365.64	0.0003
366.008	0.0021
366.376	0.0023
366.743	0.0044
367.111	0.0046
367.479	0.0052
367.847	0.004
368.214	0.0022
368.582	0.0036
368.949	0.0055
369.317	0.0068
369.684	0.0061
370.052	0.0067
370.419	0.0066
370.787	0.006
371.154	0.0028
371.521	0.0017
371.889	0.0008
372.256	0.0016
372.623	-0.0007
372.99	-0.0028
373.357	-0.0037
373.724	-0.0016
374.091	-0.0001
374.458	-0.0005
374.825	-0.0017
375.192	-0.0023
375.559	-0.0025
375.926	-0.0016
376.293	-0.0002
376.659	-0.0006
377.026	-0.0018
377.393	-0.0026
377.759	-0.0023
378.126	0.001
378.492	0.0031
378.859	0.0046
379.225	0.0022
379.592	0.0007
379.958	-0.0008
380.325	0.0004
380.691	-0.0005
381.057	0.0017
381.423	0.0004
381.79	0.0027
382.156	0.0001
382.522	-0.0005
382.888	-0.0038
383.254	-0.0028
383.62	-0.0013
383.986	0.0008
384.352	0.001
384.718	0.0011
385.084	0.0031
385.449	0.0031
385.815	0.001
386.181	0.0002
386.547	0.0014
386.912	0
387.278	-0.0017
387.643	-0.0026
388.009	-0.0013
388.374	-0.0012
388.74	-0.0008
389.105	0.0014
389.471	0.0022
389.836	0.0002
390.201	0.0001
390.566	-0.001
390.932	0.0018
391.297	0.0024
391.662	0.0023
392.027	-0.0009
392.392	-0.0035
392.757	-0.0034
393.122	-0.001
393.487	0.0007
393.852	0.0013
394.217	0.0002
394.582	-0
394.946	0.0017
395.311	0.0037
395.676	0.0052
396.04	-0.0014
396.405	-0.0043
396.77	-0.0056
397.134	0.001
397.499	0.0018
397.863	0.0008
398.227	-0.0041
398.592	-0.0044
398.956	-0.0039
399.32	0
399.685	-0.0005
400.049	0.0008
400.413	0.0025
400.777	0.002
401.141	0.0047
401.505	0.0036
401.869	0.0032
402.233	-0.0027
402.597	-0.0045
402.961	-0.004
403.325	-0
403.689	0.0013
404.053	0.0025
404.416	-0.0013
404.78	-0.0016
405.144	-0.002
405.507	0.001
405.871	-0.0012
406.234	0.0007
406.598	-0.0014
406.961	-0.0003
407.325	-0.0021
407.688	-0.0015
408.051	0.0009
408.415	0.0009
408.778	0.0021
409.141	-0.0006
409.504	-0.0016
409.867	-0.0038
410.23	-0.0036
410.593	-0.0043
410.956	-0.0012
411.319	0.0019
411.682	0.0037
412.045	0.0017
412.408	-0.0029
412.771	-0.0023
413.134	-0.0027
413.496	-0.0011
413.859	-0.0014
414.222	-0
414.584	0.0001
414.947	0.0005
415.309	0.0002
415.672	0.001
416.034	0.0006
416.396	0.0014
416.759	0.0011
417.121	0.0013
417.483	0.0001
417.846	0.001
418.208	0.0008
418.57	0.0004
418.932	-0.0023
419.294	-0.0017
419.656	-0.0013
420.018	0.0006
420.38	-0.0004
420.742	0.0002
421.104	-0.0001
421.466	-0.0013
421.827	-0.0015
422.189	-0.0019
422.551	-0.0011
422.912	-0.0015
423.274	0.0008
423.636	0.0021
423.997	0.0033
424.359	0.0036
424.72	0.0039
425.081	0.0031
425.443	-0.0002
425.804	-0.002
426.165	-0.0045
426.527	-0.0069
426.888	-0.0068
427.249	-0.0031
427.61	0.0037
427.971	0.0009
428.332	-0.001
428.693	-0.0073
429.054	-0.0047
429.415	-0.0048
429.776	-0.0035
430.137	-0.0027
430.498	-0.003
430.858	-0.0001
431.219	0.0016
431.58	0.0014
431.94	0.0015
432.301	0.0019
432.661	0.0005
433.022	-0.0012
433.382	-0.0019
433.743	-0.0021
434.103	-0.0028
434.463	-0.0064
434.824	-0.0057
435.184	-0.0035
435.544	-0.0017
435.904	-0
436.264	-0.0022
436.624	-0.0018
436.985	-0.0016
437.345	-0.0002
437.704	-0.0012
438.064	-0.0005
438.424	-0.0027
438.784	-0.0011
439.144	0.0024
439.504	0.0005
439.863	-0.003
440.223	-0.01
440.583	-0.0077
440.942	-0.0029
441.302	-0.0007
441.661	-0.0005
442.021	-0.0059
442.38	-0.0072
442.739	-0.0071
443.099	-0.0056
443.458	-0.005
443.817	-0.0015
444.176	0.0025
444.536	0.0025
444.895	0.0002
445.254	-0.0011
445.613	0.0012
445.972	-0.0014
446.331	-0.0016
446.69	-0.006
447.049	-0.0022
447.407	-0.0039
447.766	-0.0026
448.125	-0.0057
448.484	-0.005
448.842	-0.0007
449.201	-0.0007
449.559	-0.0011
449.918	-0.0049
450.276	-0.0033
450.635	-0.0014
450.993	-0.0015
451.352	-0.0007
451.71	-0.0041
452.068	-0.0018
452.426	-0.0015
452.785	0.0007
453.143	0.0004
453.501	-0.002
453.859	-0.0039
454.217	-0.0058
454.575	-0.0053
454.933	-0.0024
455.291	0.0004
455.649	-0.0001
456.006	-0.0021
456.364	-0.0001
456.722	-0.0034
457.079	0.0006
457.437	-0.0029
457.795	0.0028
458.152	0.0009
458.51	0.0008
458.867	-0.0013
459.225	-0.0021
459.582	-0.0002
459.939	-0.0024
460.297	-0.0044
460.654	-0.0059
461.011	-0.0043
461.368	-0.002
461.725	-0.0011
462.082	-0.0003
462.44	0.0005
462.797	-0.0011
463.153	-0.0008
463.51	-0.001
463.867	0.0022
464.224	-0.0018
464.581	-0.008
464.938	-0.01
465.294	-0.0059
465.651	-0.0011
466.008	-0.0014
466.364	-0.0031
466.721	-0.001
467.077	-0.0019
467.434	0.0023
467.79	0.0043
468.146	0.006
468.503	0.0086
468.859	0.0019
469.215	-0.0035
469.571	-0.0101
469.927	-0.0084
470.284	-0.008
470.64	-0.0024
470.996	-0.0004
471.352	0.0034
471.707	-0.0016
472.063	-0.0037
472.419	-0.0031
472.775	-0.0055
473.131	-0.0004
473.486	-0.0019
473.842	0.0025
474.198	-0.0008
474.553	0.0018
474.909	0.0021
475.264	0.0024
475.62	0.0002
475.975	-0.002
476.331	-0.0027
476.686	-0.0016
477.041	-0.0023
477.396	-0.0001
477.752	0.0019
478.107	0.0036
478.462	0.0006
478.817	-0.0012
479.172	0.0009
479.527	0.0032
479.882	0.0004
480.237	-0.0035
480.591	-0.0038
480.946	-0.0022
481.301	-0.0008
481.656	-0.0042
482.01	-0.0041
482.365	-0.0054
482.72	-0.0019
483.074	-0.0005
483.429	0.0004
483.783	-0.0025
484.137	0.0009
484.492	0.0009
484.846	0.0024
485.2	-0.0057
485.555	-0.0075
485.909	-0.006
486.263	-0.0013
486.617	-0.0002
486.971	-0.0007
487.325	0.0023
487.679	0.0046
488.033	-0.0001
488.387	0.0046
488.741	0.0073
489.094	0.0025
489.448	-0.005
489.802	-0.0035
490.156	0.0021
490.509	-0.004
490.863	-0.0127
491.216	-0.0084
491.57	-0.0048
491.923	0.0007
492.277	-0.0027
492.63	-0.0027
492.983	-0.0038
493.337	-0.0043
493.69	-0.0017
494.043	-0.0023
494.396	-0.0039
494.749	-0.0042
495.102	-0.0052
495.455	-0.0027
495.808	-0.0039
496.161	-0.0025
496.514	-0.0033
496.867	-0.0025
497.22	-0.0041
497.572	-0.0042
497.925	-0.0038
498.278	-0.0048
498.63	0.0021
498.983	0.0021
499.335	0.0036
499.688	-0.0067
500.04	-0.0091
500.393	-0.0108
500.745	-0.0066
501.097	-0.0044
501.449	-0.0064
501.802	-0.0078
502.154	-0.007
502.506	-0.0049
502.858	-0.0033
503.21	-0.0051
503.562	-0.0038
503.914	0.0012
504.266	0.004
504.618	0.0008
504.969	0.0005
505.321	-0.0059
505.673	-0.0037
506.025	-0.0065
506.376	-0.0018
506.728	-0.0023
507.079	-0.0029
507.431	-0.0031
507.782	-0.0028
508.134	-0.0016
508.485	-0.0041
508.836	-0.0062
509.188	-0.0061
509.539	-0.0025
509.89	-0.0038
510.241	-0.0075
510.592	-0.0039
510.943	-0.0039
511.294	-0.0022
511.645	-0.0102
511.996	-0.0078
512.347	-0.0069
512.698	-0.0026
513.049	-0.0029
513.399	-0.0032
513.75	-0.0076
514.101	-0.0059
514.451	-0.0047
514.802	-0.0013
515.152	-0.0023
515.503	-0.0018
515.853	-0.001
516.203	-0.0023
516.554	-0.0056
516.904	-0.0057
517.254	-0.0057
517.604	-0.0043
517.955	-0.0092
518.305	-0.0051
518.655	-0.0047
519.005	0.0003
519.355	0.0033
519.705	0.0015
520.055	-0.0011
520.404	-0.0071
520.754	-0.0047
521.104	-0.0022
521.454	0.0001
521.803	-0.0014
522.153	-0.0009
522.502	-0.0043
522.852	-0.0079
523.201	-0.0085
523.551	-0.0062
523.9	0.0009
524.249	0.0018
524.599	0.0021
524.948	-0.0003
525.297	0.0002
525.646	-0.001
525.995	-0.0028
526.344	-0.0064
526.694	-0.0047
527.042	-0.007
527.391	-0.0087
527.74	-0.0101
528.089	-0.0086
528.438	-0.0046
528.787	-0.0048
529.135	-0.0025
529.484	-0.0014
529.833	-0.0017
530.181	-0.0018
530.53	-0.0055
530.878	-0.0055
531.227	-0.0019
531.575	0.0028
531.923	-0.0001
532.271	-0.0038
532.62	-0.0052
532.968	-0.0023
533.316	-0.0034
533.664	-0.0019
534.012	0.0013
534.36	0.0027
534.708	-0.0035
535.056	-0.0081
535.404	-0.011
535.752	-0.0059
536.1	-0.0046
536.447	-0.0007
536.795	-0.0006
537.143	0.0017
537.49	-0.0018
537.838	-0.005
538.185	-0.0069
538.533	-0.0078
538.88	-0.0061
539.228	-0.007
539.575	-0.0029
539.922	-0.0016
540.269	0.0051
540.617	0.0015
540.964	-0.0019
541.311	-0.0074
541.658	-0.0039
542.005	-0.0021
542.352	-0.0028
542.699	-0.0064
543.045	-0.0095
543.392	-0.0087
543.739	-0.0098
544.086	-0.0072
544.432	-0.0109
544.779	-0.0064
545.126	-0.0085
545.472	-0.0073
545.819	-0.009
546.165	-0.0085
546.512	-0.0044
546.858	0.0008
547.204	0.0011
547.55	0.0001
547.897	-0.0046
548.243	-0.0084
548.589	-0.0044
548.935	-0.0055
549.281	-0.0023
549.627	-0.0058
549.973	-0
550.319	-0.0004
550.665	0.0015
551.01	-0.0061
551.356	-0.0077
551.702	-0.0125
552.048	-0.017
552.393	-0.0128
552.739	-0.0102
553.084	-0.0012
553.43	-0.0047
553.775	-0.0092
554.12	-0.009
554.466	-0.005
554.811	0.0005
555.156	-0.0016
555.502	-0.0009
555.847	-0.0054
556.192	-0.0056
556.537	-0.0092
556.882	-0.0075
557.227	-0.011
557.572	-0.0074
557.917	0.0025
558.261	0.001
558.606	-0.0043
558.951	-0.013
559.295	-0.0154
559.64	-0.0104
559.985	-0.0106
560.329	-0.0054
560.674	-0.0059
561.018	-0.0092
561.363	-0.0113
561.707	-0.0137
562.051	-0.0107
562.395	-0.0004
562.74	0.0012
563.084	0.0023
563.428	0.0019
563.772	0.0043
564.116	0.0017
564.46	-0.0051
564.804	-0.0057
565.148	-0.0142
565.492	-0.0098
565.835	-0.0065
566.179	0.0057
566.523	-0.0016
566.866	-0.0114
567.21	-0.0144
567.554	-0.0107
567.897	-0.0047
568.24	-0.01
568.584	-0.0093
568.927	-0.0083
569.271	-0.0066
569.614	-0.0047
569.957	-0.0045
570.3	0
570.643	-0.001
570.986	-0.004
571.329	-0.0007
571.672	-0.001
572.015	-0.0026
572.358	-0.0045
572.701	0.0022
573.044	-0.002
573.387	-0.0027
573.729	-0.001
574.072	0.0066
574.414	0.0072
574.757	0.0068
575.099	-0.0124
575.442	-0.0204
575.784	-0.0089
576.127	0.0086
576.469	0.0092
576.811	-0.0041
577.153	-0.0045
577.496	-0.0032
577.838	-0.0012
578.18	-0.0164
578.522	-0.0189
578.864	-0.0224
579.206	0.0037
579.548	0.0056
579.889	-0.0075
580.231	0.0042
580.573	0.0171
580.915	0.0133
581.256	-0.0133
581.598	-0.0335
581.939	-0.038
582.281	-0.007
582.622	-0.0079
582.964	0.0003
583.305	-0.0151
583.646	-0.003
583.988	0.0362
584.329	0.0237
584.67	0.007
585.011	-0.0246
585.352	-0.0377
585.693	-0.022
586.034	-0.0283
586.375	-0.0206
586.716	-0.0167
587.057	-0.0072
587.398	0.01
587.738	0.0198
588.079	0.007
588.42	-0.0009
588.76	-0.0251
589.101	-0.0202
589.441	-0.0252
589.782	-0.0119
590.122	-0.0009
590.463	0.0029
590.803	-0.0083
591.143	-0.0081
591.483	-0.0176
591.823	-0.0198
592.164	-0.0244
592.504	-0.0066
592.844	0.0008
593.184	-0.0051
593.523	-0.0171
593.863	-0.0162
594.203	-0.008
594.543	0.0029
594.883	-0.0073
595.222	0.0014
595.562	0.0174
595.901	0.0168
596.241	0.0007
596.58	-0.0197
596.92	-0.0275
597.259	-0.03
597.599	-0.0196
597.938	0.0028
598.277	0.0025
598.616	-0.0145
598.955	-0.0246
599.295	-0.0192
599.634	-0.0008
599.973	0.0073
600.312	0.012
600.65	-0.0047
600.989	-0.0076
601.328	-0.0016
601.667	0.0239
602.005	0.0054
602.344	-0.0057
602.683	-0.0093
603.021	-0.0009
603.36	-0.0099
603.698	-0.0217
604.037	-0.0212
604.375	-0.0143
604.713	-0.0198
605.052	-0.0172
605.39	-0.0167
605.728	-0.0102
606.066	0.0145
606.404	0.0163
606.742	0.0087
607.08	-0.0073
607.418	-0.0192
607.756	-0.0108
608.094	-0.0045
608.431	0.0028
608.769	0.0094
609.107	-0.0092
609.444	-0.0001
609.782	-0.0122
610.12	0.0033
610.457	-0.0071
610.794	-0.0224
611.132	-0.0248
611.469	-0.0234
611.806	-0.0158
612.144	-0.0259
612.481	-0.0174
612.818	-0.0007
613.155	-0.0067
613.492	-0.0113
613.829	-0.0146
614.166	-0.0005
614.503	-0.004
614.84	-0.0106
615.176	-0.0129
615.513	-0.0064
615.85	-0.0047
616.187	0.0037
616.523	-0.0044
616.86	-0.0064
617.196	-0.0013
617.533	0.0189
617.869	0.0113
618.205	-0.0033
618.542	-0.0244
618.878	-0.0323
619.214	-0.021
619.55	-0.0134
619.886	-0.0057
620.222	-0.0203
620.558	-0.0165
620.894	-0.0027
621.23	-0
621.566	-0.0052
621.902	-0.0098
622.238	-0.0173
622.573	0.0005
622.909	-0.0091
623.244	-0.003
623.58	-0.0256
623.916	-0.0255
624.251	-0.0082
624.586	0.0148
624.922	0.0154
625.257	-0.0088
625.592	-0.0225
625.927	-0.017
626.263	-0.0115
626.598	-0.0083
626.933	-0.0061
627.268	0.0014
627.603	-0.0091
627.938	-0.0199
628.272	-0.017
628.607	-0.0156
628.942	-0.0091
629.277	-0.0169
629.611	-0.003
629.946	0.0067
630.281	0.0022
630.615	-0.0035
630.949	-0.0203
631.284	-0.0153
631.618	-0.007
631.953	0.0066
632.287	0.0063
632.621	-0.0063
632.955	-0.0125
633.289	-0.0123
633.623	-0.0122
633.957	-0.0115
634.291	-0.015
634.625	-0.0071
634.959	-0.0138
635.293	-0.0054
635.627	-0.003
635.96	-0.0012
636.294	-0.0057
636.627	-0.0115
636.961	0.0011
637.294	-0.0023
637.628	-0.0054
637.961	-0.014
638.295	-0.0068
638.628	0.0012
638.961	0.0055
639.294	0.0003
639.628	-0.0122
639.961	-0.0237
640.294	-0.02
640.627	-0.012
640.96	-0.0049
641.293	-0.0047
641.625	-0.0062
641.958	-0.011
642.291	-0.0187
642.624	-0.0171
642.956	-0.0111
643.289	0
643.621	0.001
643.954	-0.0028
644.286	-0.0096
644.619	-0.0149
644.951	-0.0123
645.283	-0.013
645.616	-0.0053
645.948	-0.0045
646.28	-0.0016
646.612	-0.0053
646.944	-0.0067
647.276	-0.009
647.608	-0.007
647.94	-0.0031
648.272	-0.0048
648.603	-0.008
648.935	-0.0095
649.267	-0.0056
649.598	-0.0035
649.93	-0.0073
650.261	-0.0042
650.593	0.0036
650.924	0.0169
651.256	0.0141
651.587	0.003
651.918	-0.0056
652.25	-0.0099
652.581	-0.0101
652.912	-0.0148
653.243	-0.0136
653.574	-0.0099
653.905	-0.0037
654.236	-0.0061
654.567	-0.0032
654.897	-0.0053
655.228	-0.0054
655.559	-0.0022
655.89	0.0019
656.22	0.0017
656.551	-0.0048
656.881	-0.0133
657.212	-0.012
657.542	-0.0082
657.872	0.0029
658.203	0.014
658.533	0.1376
658.863	0.0769
659.193	0.0122
659.523	-0.0517
659.853	-0.1177
660.183	-0.0665
660.513	-0.0306
660.843	-0.0128
661.173	-0.0079
661.503	-0.0067
661.833	-0.0083
662.162	-0.0104
662.492	-0.0121
662.822	-0.0134
663.151	-0.0119
663.481	-0.0087
663.81	-0.0013
664.139	0.0024
664.469	-0.0003
664.798	-0.0012
665.127	-0.0052
665.456	-0.0007
665.785	-0.0048
666.114	-0.0028
666.443	-0.0088
666.772	-0.0035
667.101	-0.0012
667.43	0.004
667.759	-0.0017
668.088	-0.0021
668.416	-0.0116
668.745	-0.0118
669.074	-0.0101
669.402	0.0003
669.731	0.0031
670.059	0.0017
670.388	-0.0009
670.716	-0.0029
671.044	-0.0056
671.372	-0.0067
671.701	-0.0028
672.029	0.0035
672.357	0.0022
672.685	-0.0005
673.013	-0.0023
673.341	-0.0061
673.669	-0.0076
673.996	-0.0092
674.324	0.0111
674.652	0.0081
674.98	0.0055
675.307	-0.0064
675.635	-0.0095
675.962	-0.0076
676.29	-0.0101
676.617	-0.0071
676.945	-0.0101
677.272	-0.0133
677.599	-0.0096
677.926	-0.0111
678.253	-0.0042
678.581	-0.0092
678.908	-0.0039
679.235	-0.0012
679.561	-0.0051
679.888	-0.0164
680.215	-0.0175
680.542	0.004
680.869	0.0068
681.195	-0.0022
681.522	-0.0149
681.849	-0.0109
682.175	0.0007
682.502	0.0049
682.828	0.0038
683.154	-0.006
683.481	-0.0101
683.807	-0.0135
684.133	0.0013
684.459	0.0006
684.785	0.0064
685.111	-0.0092
685.437	-0.0114
685.763	-0.0137
686.089	-0.005
686.415	0.0021
686.741	-0
687.067	0.0015
687.392	-0.0025
687.718	0.0017
688.043	0.004
688.369	0.0035
688.694	-0.002
689.02	-0.0117
689.345	-0.0161
689.67	-0.0168
689.996	-0.0125
690.321	-0.0071
690.646	-0.0063
690.971	-0.0092
691.296	-0.0101
691.621	-0.0097
691.946	-0.0025
692.271	0.0037
692.596	-0.0001
692.921	-0.0056
693.245	-0.0136
693.57	-0.0026
693.895	0.0087
694.219	0.0107
694.544	-0.003
694.868	-0.0157
695.193	-0.016
695.517	-0.0064
695.841	0
696.166	-0.0023
696.49	-0.0036
696.814	-0.0087
697.138	-0.0069
697.462	-0.0016
697.786	0.0031
698.11	0.0136
698.434	0.0007
698.758	-0.0091
699.081	-0.027
699.405	-0.0174
699.729	0.0146
700.052	0.0168
700.376	0.0048
700.7	-0.0197
701.023	-0.0249
701.346	-0.0163
701.67	-0.0086
701.993	-0.0057
702.316	-0.0029
702.639	-0.0008
702.963	-0.0012
703.286	-0.0091
703.609	-0.0075
703.932	-0.0065
704.255	-0.0054
704.578	-0.0046
704.9	0.001
705.223	0.006
705.546	0.0048
705.868	-0.0059
706.191	-0.013
706.514	-0.0174
706.836	-0.0125
707.159	-0.0014
707.481	-0.002
707.803	-0.0054
708.126	-0.0115
708.448	-0.0099
708.77	-0.0009
709.092	0.005
709.414	0.0133
709.736	0.0138
710.058	0.0065
710.38	-0.0038
710.702	-0.0085
711.024	-0.0111
711.345	-0.0157
711.667	-0.0183
711.989	-0.0137
712.31	-0.0069
712.632	-0.0051
712.953	-0.0125
713.275	-0.0119
713.596	-0.0072
713.917	-0.0055
714.239	-0.0077
714.56	-0.0132
714.881	-0.0095
715.202	-0.0063
715.523	0.0055
715.844	0.003
716.165	0.0013
716.486	-0.0099
716.807	-0.0109
717.128	-0.0087
717.448	-0.0094
717.769	-0.0085
718.09	-0.0104
718.41	-0.014
718.731	-0.0141
719.051	-0.0187
719.372	-0.0153
719.692	-0.008
720.012	0.0022
720.332	0.0018
720.653	-0.0007
720.973	0.0078
721.293	-0.0002
721.613	-0.0084
721.933	-0.0209
722.253	-0.0082
722.573	-0.0061
722.892	-0.006
723.212	-0.0111
723.532	-0.0071
723.851	-0.0076
724.171	-0.0079
724.491	-0.0051
724.81	-0.0032
725.129	-0.0014
725.449	-0.0047
725.768	-0.0038
726.087	-0.0031
726.407	-0.0063
726.726	-0.0114
727.045	-0.0195
727.364	-0.0143
727.683	-0.0105
728.002	0.0012
728.321	-0.0014
728.64	-0.0066
728.958	-0.0084
729.277	-0.0087
729.596	-0.0101
729.914	-0.0129
730.233	-0.0119
730.551	-0.0034
730.87	-0.0023
731.188	-0.0021
731.507	-0.0086
731.825	-0.0102
732.143	-0.0117
732.461	-0.0055
732.779	-0.0053
733.097	-0.0049
733.415	0.0005
733.733	0.0134
734.051	0.0034
734.369	-0.0055
734.687	-0.0249
735.005	-0.0203
735.322	-0.017
735.64	-0.0027
735.957	-0.0009
736.275	-0.0044
736.592	-0.0052
736.91	-0.0019
737.227	0.0014
737.544	-0.0098
737.862	-0.0088
738.179	-0.0108
738.496	0.0027
738.813	-0.0043
739.13	-0.0135
739.447	-0.0176
739.764	-0.0087
740.081	-0.003
740.398	-0.0085
740.714	-0.0099
741.031	-0.0055
741.348	-0.0029
741.664	0.0009
741.981	0.0098
742.297	0.0016
742.614	-0.0132
742.93	-0.0273
743.246	-0.0201
743.563	-0.0064
743.879	-0.002
744.195	-0.002
744.511	-0.0027
744.827	-0.0023
745.143	0.0009
745.459	0.0059
745.775	-0.0009
746.091	-0.0056
746.406	-0.0126
746.722	-0.0105
747.038	-0.0111
747.353	-0.009
747.669	-0.0035
747.984	-0.0052
748.3	-0.0016
748.615	-0.0057
748.93	0.0013
749.246	-0.0133
749.561	-0.0096
749.876	-0.0072
750.191	-0.0008
750.506	-0.0033
750.821	-0.0056
751.136	-0.0021
751.451	-0.0004
751.766	-0.0061
752.08	-0.0028
752.395	-0.0032
752.71	0.0034
753.024	0.0021
753.339	0.0005
753.653	-0.0076
753.968	-0.0072
754.282	-0.0039
754.596	-0.0036
754.911	-0.0047
755.225	-0.0014
755.539	-0.0029
755.853	-0.0056
756.167	-0.0033
756.481	-0.0006
756.795	-0.0048
757.109	-0.0106
757.423	-0.0086
757.736	-0.0033
758.05	-0.0057
758.364	-0.003
758.677	-0.0046
758.991	-0.0057
759.304	-0.0003
759.618	0.0049
759.931	0.0008
760.244	0.0022
760.558	-0.0067
760.871	-0.0082
761.184	-0.0265
761.497	-0.0286
761.81	-0.0207
762.123	-0.0069
762.436	-0.0045
762.749	-0.0092
763.062	-0.0072
763.374	0.0056
763.687	0.0038
764	0.001
764.312	-0.014
764.625	-0.0138
764.937	-0.016
765.25	-0.0111
765.562	0.0008
765.874	-0.0054
766.186	-0.0031
766.499	-0.015
766.811	-0.0082
767.123	0.0011
767.435	0.006
767.747	0.0051
768.059	-0.0099
768.37	-0.0118
768.682	-0.0179
768.994	-0.0196
769.306	-0.0202
769.617	-0.0154
769.929	-0.0066
770.24	-0.006
770.552	-0.0011
770.863	-0.0016
771.174	-0.0029
771.486	-0.0054
771.797	-0.0098
772.108	-0.0192
772.419	-0.0258
772.73	-0.0166
773.041	-0.0036
773.352	0.0015
773.663	-0.0061
773.974	-0.0045
774.285	-0.0088
774.595	-0.0071
774.906	-0.0109
775.217	-0.0094
775.527	-0.0077
775.838	-0.0065
776.148	-0.0019
776.458	-0.0047
776.769	-0.0042
777.079	-0.0049
777.389	-0.0012
777.699	0.0024
778.009	0.002
778.319	0.0007
778.629	-0.008
778.939	-0.0089
779.249	-0.0076
779.559	-0.0052
779.869	-0.0061
780.178	-0.0125
780.488	-0.018
780.798	-0.0159
781.107	-0.0073
781.417	0.0022
781.726	-0.0033
782.035	-0.0085
782.345	-0.0137
782.654	-0.0096
782.963	-0.0067
783.272	-0.0044
783.581	0.0012
783.89	0.0081
784.199	0.0025
784.508	-0.0088
784.817	-0.0238
785.126	-0.0223
785.434	-0.0158
785.743	-0.0157
786.052	-0.0121
786.36	-0.0158
786.669	-0.0099
786.977	-0.0105
787.285	-0.0063
787.594	-0.0054
787.902	-0.0008
788.21	-0.003
788.518	0.001
788.826	-0.0031
789.135	-0.001
789.442	-0.0082
789.75	-0.0108
790.058	-0.0084
790.366	-0.0063
790.674	-0.0011
790.981	0.0018
791.289	0.004
791.597	-0.0013
791.904	-0.0123
792.212	-0.0157
792.519	-0.0159
792.826	-0.005
793.134	-0.0062
793.441	-0.0036
793.748	-0.0048
794.055	0.0032
794.362	0.0052
794.669	-0.0063
794.976	-0.006
795.283	-0.0123
795.59	-0.0001
795.897	-0.0082
796.203	-0.0074
796.51	0.0058
796.817	0.0189
797.123	0.0075
797.43	-0.0102
797.736	-0.0201
798.042	-0.0151
798.349	-0.0151
798.655	-0.0214
798.961	-0.0133
799.267	-0.0128
799.573	-0.0086
799.879	-0.014
800.185	-0.0078
800.491	-0.0107
800.797	-0.0115
801.103	-0.0169
801.408	-0.013
801.714	-0.0063
802.02	-0.0061
802.325	-0.0051
802.631	-0.0083
802.936	-0.0031
803.242	-0.002
803.547	-0.0031
803.852	-0.0044
804.157	-0.0093
804.462	-0.0042
804.768	-0.0054
805.073	-0.0022
805.378	-0.0016
805.682	-0.0043
805.987	-0.0041
806.292	-0.0106
806.597	-0.0078
806.902	-0.0072
807.206	-0.0133
807.511	-0.0105
807.815	-0.0193
808.12	-0.0054
808.424	-0.0025
808.728	0.0091
809.033	0.0103
809.337	-0.0024
809.641	-0.0163
809.945	-0.0219
810.249	-0.013
810.553	-0.0049
810.857	-0.0047
811.161	-0.0064
811.465	-0.0041
811.768	-0.0088
812.072	-0.0145
812.376	-0.0089
812.679	0.0008
812.983	0.0071
813.286	-0.002
813.59	-0.0058
813.893	-0.005
814.196	-0.009
814.499	-0.0061
814.803	-0.0082
815.106	-0.004
815.409	-0.0168
815.712	-0.0178
816.015	-0.0097
816.318	0.0009
816.62	0.0022
816.923	-0.0118
817.226	-0.0209
817.528	-0.0229
817.831	-0.0167
818.133	-0.013
818.436	-0.011
818.738	-0.0119
819.041	-0.0108
819.343	-0.0134
819.645	-0.0011
819.947	0.0001
820.249	-0.0009
820.551	-0.0063
820.853	-0.0069
821.155	-0.0119
821.457	-0.0229
821.759	-0.0194
822.061	-0.0076
822.362	-0.0021
822.664	-0.007
822.966	-0.0076
823.267	0.0032
823.569	0.0075
823.87	-0.0064
824.171	-0.02
824.473	-0.0289
824.774	-0.019
825.075	-0.0161
825.376	-0.0129
825.677	-0.0072
825.978	-0.0052
826.279	-0.01
826.58	-0.0269
826.881	-0.0342
827.181	-0.035
827.482	-0.0234
827.783	-0.0166
828.083	-0.0029
828.384	-0.0029
828.684	-0.0089
828.985	-0.0086
829.285	-0.0036
829.585	0.0074
829.885	0.0071
830.185	0.0087
830.486	0.0042
830.786	-0.0067
831.086	-0.0156
831.385	-0.0148
831.685	-0.0099
831.985	-0.0088
832.285	-0.0143
832.585	-0.0108
832.884	-0.0182
833.184	-0.0211
833.483	-0.0324
833.783	-0.0265
834.082	-0.0168
834.381	-0.0129
834.681	-0.0164
834.98	-0.0251
835.279	-0.0321
835.578	-0.0248
835.877	-0.0236
836.176	-0.0099
836.475	-0.0084
836.774	-0.002
837.072	-0.0014
837.371	0.0018
837.67	-0.0043
837.968	-0.0107
838.267	-0.0187
838.565	-0.0185
838.864	-0.0211
839.162	-0.0312
839.46	-0.0279
839.759	-0.0196
840.057	-0.0058
840.355	-0.0003
840.653	-0.0106
840.951	-0.0055
841.249	-0.0132
841.547	-0.007
841.845	-0.0161
842.142	-0.0119
842.44	-0.0077
842.738	-0.0053
843.035	-0.0151
843.333	-0.0125
843.63	-0.0203
843.928	-0.0098
844.225	-0.0274
844.522	-0.0235
844.82	-0.026
845.117	0.0033
845.414	0.0077
845.711	0.0039
846.008	-0.0113
846.305	-0.0081
846.602	-0.0049
846.898	-0.0094
847.195	-0.02
847.492	-0.0195
847.788	-0.0122
848.085	-0.0029
848.382	0.006
848.678	-0.0021
848.974	-0.0047
849.271	-0.0105
849.567	-0.0142
849.863	-0.0183
850.159	-0.018
850.455	-0.0013
850.751	0.0062
851.047	0.0016
851.343	-0.0042
851.639	-0.005
851.935	0.0079
852.23	0.006
852.526	-0.0119
852.822	-0.0137
853.117	-0.0096
853.413	0.0084
853.708	-0.0037
854.003	-0.019
854.299	-0.0349
854.594	-0.0224
854.889	-0.0068
855.184	0.0053
855.479	0.003
855.774	-0.0091
856.069	-0.0105
856.364	-0.0084
856.659	0.0042
856.954	0.0095
857.248	-0.0033
857.543	-0.0187
857.837	-0.0375
858.132	-0.0335
858.426	-0.0332
858.721	-0.0225
859.015	-0.0165
859.309	0.0087
859.604	0
859.898	-0.0224
860.192	-0.0331
860.486	-0.0287
860.78	-0.0213
861.074	-0.02
861.367	-0.0356
861.661	-0.0008
861.955	-0.0038
862.248	0.02
862.542	-0.0286
862.836	-0.035
863.129	-0.0221
863.422	-0.0035
863.716	-0.0061
864.009	-0.0253
864.302	-0.0065
864.595	0.0057
864.889	0.0262
865.182	-0.0001
865.475	0.0087
865.767	-0.0093
866.06	-0.016
866.353	-0.0434
866.646	-0.0259
866.938	-0.0153
867.231	-0.0201
867.524	-0.0309
867.816	-0.0209
868.109	-0.0088
868.401	-0.0153
868.693	-0.0053
868.985	0.0034
869.278	0.0208
869.57	0.0104
869.862	-0.005
870.154	-0.0269
870.446	0.0003
870.738	-0.0083
871.029	0.0075
871.321	-0.0157
871.613	0.0193
871.904	-0.0297
872.196	-0.0367
872.487	-0.0893
872.779	-0.0543
873.07	-0.0644
873.362	-0.0388
873.653	-0.0443
873.944	-0.0292
874.235	-0.0401
874.526	-0.0263
874.817	-0.0552
875.108	-0.0438
875.399	-0.0292
875.69	-0.0143
875.981	-0.0135
876.271	-0.04
876.562	-0.0358
876.853	-0.0534
877.143	-0.0525
877.434	-0.041
877.724	-0.005
878.014	0.0006
878.305	0.0044
878.595	-0.0141
878.885	-0.029
879.175	-0.0267
879.465	0.0033
879.755	0.0079
880.045	0.0032
880.335	-0.0178
880.624	0.0012
880.914	0.0012
