Data from 31SS02FU_072917_1b_Absorbance_17-23-41-706.txt Node
Date: Wed Aug 02 17:23:41 MDT 2017
User: Tank Lab
Spectrometer: FLMS01220
Trigger mode: 0
Integration Time (sec): 1.000000E-1
Scans to average: 10
Electric dark correction enabled: true
Nonlinearity correction enabled: false
Boxcar width: 1
XAxis mode: Wavelengths
Number of Pixels in Spectrum: 2048
>>>>>Begin Spectral Data<<<<<
179.47	-0.2668
179.856	-0.2668
180.241	-0
180.626	-0
181.011	-0
181.396	-0.4464
181.781	-0
182.166	-0.1262
182.551	-0
182.936	-0
183.321	-1.3875
183.706	-0.2225
184.091	-0.1112
184.476	-0
184.86	0.322
185.245	0.0289
185.63	0.3913
186.015	-0
186.399	-0
186.784	0.1169
187.169	-0
187.553	-0.3922
187.938	-0.0836
188.322	-0.0836
188.707	0.009
189.091	0.0193
189.475	0.0384
189.86	0.0394
190.244	0.0385
190.629	0.0775
191.013	0.1141
191.397	0.1793
191.781	0.252
192.165	0.3016
192.55	0.3408
192.934	0.3483
193.318	0.3909
193.702	0.4161
194.086	0.4302
194.47	0.4266
194.854	0.4099
195.238	0.4131
195.622	0.4177
196.006	0.4312
196.389	0.4271
196.773	0.4011
197.157	0.3911
197.541	0.3761
197.924	0.3622
198.308	0.3395
198.692	0.3317
199.075	0.3158
199.459	0.3031
199.843	0.2782
200.226	0.2672
200.61	0.2584
200.993	0.2497
201.376	0.2439
201.76	0.2357
202.143	0.2321
202.527	0.2283
202.91	0.2268
203.293	0.2187
203.676	0.212
204.059	0.2017
204.443	0.1957
204.826	0.1887
205.209	0.1813
205.592	0.1781
205.975	0.1743
206.358	0.1736
206.741	0.175
207.124	0.1755
207.507	0.1747
207.89	0.1722
208.273	0.1682
208.655	0.1654
209.038	0.1615
209.421	0.1627
209.804	0.1607
210.186	0.1617
210.569	0.1579
210.951	0.1587
211.334	0.157
211.717	0.1558
212.099	0.1508
212.482	0.1489
212.864	0.1496
213.246	0.1488
213.629	0.1444
214.011	0.1392
214.393	0.1383
214.776	0.1377
215.158	0.1366
215.54	0.134
215.922	0.1301
216.305	0.1288
216.687	0.1255
217.069	0.1238
217.451	0.1201
217.833	0.1189
218.215	0.1163
218.597	0.1166
218.979	0.1156
219.361	0.1125
219.742	0.1068
220.124	0.1012
220.506	0.0986
220.888	0.0949
221.27	0.094
221.651	0.0911
222.033	0.0897
222.415	0.0853
222.796	0.0826
223.178	0.0803
223.559	0.0782
223.941	0.0762
224.322	0.0722
224.704	0.07
225.085	0.0671
225.466	0.0663
225.848	0.0653
226.229	0.065
226.61	0.0618
226.992	0.0564
227.373	0.052
227.754	0.049
228.135	0.0485
228.516	0.0489
228.897	0.0502
229.278	0.0476
229.659	0.045
230.04	0.0416
230.421	0.0406
230.802	0.0398
231.183	0.0391
231.564	0.0386
231.944	0.036
232.325	0.0334
232.706	0.0339
233.087	0.0331
233.467	0.032
233.848	0.0294
234.229	0.0276
234.609	0.0259
234.99	0.024
235.37	0.0232
235.751	0.0233
236.131	0.0222
236.511	0.0224
236.892	0.0229
237.272	0.021
237.652	0.0199
238.033	0.019
238.413	0.02
238.793	0.02
239.173	0.0194
239.553	0.0189
239.933	0.0176
240.313	0.0185
240.694	0.02
241.074	0.0204
241.453	0.0192
241.833	0.0198
242.213	0.0193
242.593	0.0178
242.973	0.0152
243.353	0.0151
243.732	0.016
244.112	0.0155
244.492	0.0153
244.872	0.0141
245.251	0.0152
245.631	0.015
246.01	0.015
246.39	0.0147
246.769	0.014
247.149	0.0151
247.528	0.0143
247.908	0.0148
248.287	0.0145
248.666	0.0152
249.045	0.0163
249.425	0.0156
249.804	0.0152
250.183	0.0135
250.562	0.0133
250.941	0.0135
251.32	0.014
251.699	0.0141
252.078	0.0146
252.457	0.0132
252.836	0.0141
253.215	0.0123
253.594	0.0133
253.973	0.0112
254.352	0.0106
254.731	0.01
255.109	0.0108
255.488	0.0114
255.867	0.0121
256.245	0.0122
256.624	0.0124
257.002	0.0122
257.381	0.0128
257.759	0.0131
258.138	0.0123
258.516	0.011
258.895	0.0112
259.273	0.0107
259.651	0.0118
260.03	0.011
260.408	0.0123
260.786	0.0119
261.164	0.0119
261.542	0.0104
261.921	0.0094
262.299	0.0103
262.677	0.0111
263.055	0.0117
263.433	0.0123
263.811	0.0112
264.188	0.0104
264.566	0.0087
264.944	0.0088
265.322	0.0092
265.7	0.0098
266.077	0.0117
266.455	0.0112
266.833	0.0096
267.21	0.0087
267.588	0.0103
267.966	0.0105
268.343	0.0108
268.721	0.0089
269.098	0.0095
269.475	0.0094
269.853	0.0109
270.23	0.0101
270.607	0.0102
270.985	0.0089
271.362	0.0101
271.739	0.009
272.116	0.0086
272.494	0.0082
272.871	0.0087
273.248	0.0098
273.625	0.0096
274.002	0.0103
274.379	0.0096
274.756	0.009
275.132	0.0071
275.509	0.0071
275.886	0.0083
276.263	0.0088
276.64	0.0087
277.016	0.0073
277.393	0.0081
277.77	0.0083
278.146	0.0097
278.523	0.0099
278.899	0.0096
279.276	0.009
279.652	0.0082
280.029	0.0087
280.405	0.0087
280.782	0.0084
281.158	0.0083
281.534	0.0082
281.91	0.0091
282.287	0.0092
282.663	0.0084
283.039	0.0072
283.415	0.0069
283.791	0.0077
284.167	0.0081
284.543	0.008
284.919	0.0072
285.295	0.0077
285.671	0.0071
286.047	0.0069
286.423	0.0075
286.799	0.0079
287.174	0.0097
287.55	0.0075
287.926	0.008
288.301	0.0068
288.677	0.009
289.053	0.0089
289.428	0.0091
289.804	0.008
290.179	0.0067
290.555	0.0058
290.93	0.0061
291.305	0.0064
291.681	0.0068
292.056	0.0059
292.431	0.0061
292.806	0.0066
293.182	0.007
293.557	0.0073
293.932	0.0071
294.307	0.0063
294.682	0.006
295.057	0.0054
295.432	0.0079
295.807	0.0072
296.182	0.0067
296.557	0.0043
296.932	0.0039
297.306	0.0046
297.681	0.0055
298.056	0.0069
298.43	0.0071
298.805	0.0079
299.18	0.007
299.554	0.0066
299.929	0.0046
300.303	0.0048
300.678	0.0066
301.052	0.0089
301.427	0.0094
301.801	0.0079
302.175	0.0069
302.55	0.0059
302.924	0.006
303.298	0.0064
303.672	0.0082
304.046	0.0068
304.421	0.0054
304.795	0.006
305.169	0.0072
305.543	0.0089
305.917	0.0077
306.291	0.0069
306.664	0.0072
307.038	0.0075
307.412	0.0077
307.786	0.007
308.16	0.0072
308.533	0.0062
308.907	0.0053
309.281	0.0033
309.654	0.0059
310.028	0.0065
310.401	0.0076
310.775	0.0065
311.148	0.0057
311.522	0.0059
311.895	0.0061
312.268	0.0056
312.642	0.0052
313.015	0.0044
313.388	0.0073
313.761	0.007
314.135	0.0069
314.508	0.0052
314.881	0.0045
315.254	0.0049
315.627	0.0042
316	0.0042
316.373	0.0059
316.746	0.0061
317.118	0.0062
317.491	0.005
317.864	0.0064
318.237	0.0058
318.61	0.005
318.982	0.005
319.355	0.0073
319.727	0.0081
320.1	0.0064
320.473	0.006
320.845	0.0056
321.218	0.0063
321.59	0.006
321.962	0.0043
322.335	0.0039
322.707	0.0032
323.079	0.004
323.452	0.0042
323.824	0.0038
324.196	0.0034
324.568	0.0034
324.94	0.0037
325.312	0.0057
325.684	0.0054
326.056	0.0048
326.428	0.0035
326.8	0.0031
327.172	0.0035
327.544	0.0035
327.915	0.0032
328.287	0.004
328.659	0.0027
329.031	0.003
329.402	0.0019
329.774	0.0025
330.145	0.0018
330.517	0.0017
330.888	0.0028
331.26	0.0041
331.631	0.0037
332.003	0.0035
332.374	0.0026
332.745	0.005
333.117	0.0046
333.488	0.0033
333.859	0.002
334.23	0.0014
334.601	0.0038
334.972	0.0038
335.343	0.0032
335.714	0.0023
336.085	0.0029
336.456	0.0044
336.827	0.0035
337.198	0.0031
337.569	0.0029
337.94	0.003
338.31	0.0012
338.681	0.0002
339.052	0.0005
339.422	0.0031
339.793	0.0027
340.164	0.0026
340.534	0.0011
340.905	0.0019
341.275	0.0019
341.645	0.0035
342.016	0.0019
342.386	0.0025
342.756	0.0022
343.127	0.0038
343.497	0.0051
343.867	0.0029
344.237	0.0018
344.607	0.0002
344.977	0.0027
345.347	0.0026
345.717	0.0016
346.087	0.0005
346.457	-0.0003
346.827	0.0006
347.197	-0.0003
347.567	0.0019
347.936	0.0012
348.306	0.0019
348.676	0.0002
349.046	0
349.415	0.0008
349.785	0.0001
350.154	0.0003
350.524	-0.0007
350.893	-0.0006
351.263	0.0002
351.632	-0.0003
352.001	0.0009
352.371	0
352.74	0.0013
353.109	0.0014
353.478	0.0021
353.847	0.001
354.217	-0.0012
354.586	-0.0007
354.955	0.0004
355.324	0.0011
355.693	-0.0009
356.062	-0.0015
356.43	-0.0006
356.799	0.0009
357.168	-0.0008
357.537	-0.0014
357.906	-0.0002
358.274	0.001
358.643	0.0017
359.011	0.0004
359.38	0.0015
359.749	0.0016
360.117	0.0013
360.486	0.0018
360.854	0.002
361.222	0.0023
361.591	0.0004
361.959	-0.0003
362.327	0.0008
362.695	0.0019
363.064	0.0011
363.432	0.0001
363.8	0.0005
364.168	0.0024
364.536	0.0025
364.904	0.0027
365.272	0.0007
365.64	0.0007
366.008	-0.0017
366.376	-0
366.743	-0.0019
367.111	-0.0001
367.479	-0.0002
367.847	0.0023
368.214	0.0025
368.582	0.0018
368.949	0.0005
369.317	0.0012
369.684	0.0013
370.052	-0.0003
370.419	-0.0018
370.787	-0.0017
371.154	-0.0012
371.521	-0.0007
371.889	-0.0004
372.256	-0.0021
372.623	-0.0037
372.99	-0.0045
373.357	-0.003
373.724	-0.002
374.091	-0.0014
374.458	-0
374.825	0.001
375.192	0.0003
375.559	-0.0006
375.926	-0.0027
376.293	-0.0028
376.659	-0.0031
377.026	-0.0022
377.393	-0.0007
377.759	-0.0003
378.126	-0.0013
378.492	-0.002
378.859	-0.0011
379.225	-0.0001
379.592	-0.0002
379.958	-0.0004
380.325	-0.001
380.691	-0.0009
381.057	-0.0021
381.423	-0.0017
381.79	-0.0006
382.156	-0.003
382.522	-0.0018
382.888	-0.0018
383.254	0.0022
383.62	0.0016
383.986	0.001
384.352	0.0014
384.718	0.0025
385.084	0.0026
385.449	0.0019
385.815	0.0009
386.181	0.0004
386.547	-0.0016
386.912	-0.0021
387.278	-0.0005
387.643	0.0029
388.009	0.0029
388.374	-0.0009
388.74	-0.0014
389.105	-0.0017
389.471	0.0011
389.836	0.0002
390.201	0.0008
390.566	0.001
390.932	0.0005
391.297	-0.0005
391.662	-0.0022
392.027	-0.0024
392.392	-0.0026
392.757	-0.0031
393.122	-0.0028
393.487	-0.0013
393.852	0.0019
394.217	0.0018
394.582	0.0005
394.946	-0.0006
395.311	-0.0004
395.676	0.0006
396.04	-0.0032
396.405	-0.0036
396.77	-0.0046
397.134	-0.0031
397.499	-0.0038
397.863	-0.0044
398.227	-0.0029
398.592	-0.0033
398.956	-0.004
399.32	-0.0031
399.685	-0.0006
400.049	0.0007
400.413	0.0001
400.777	-0
401.141	0.0024
401.505	0.0009
401.869	-0.001
402.233	-0.0033
402.597	-0.0042
402.961	-0.0024
403.325	-0.0015
403.689	0.0022
404.053	0.0032
404.416	0.0041
404.78	0.0014
405.144	-0.0002
405.507	-0.0022
405.871	-0.0017
406.234	-0.0012
406.598	0.0003
406.961	0.0022
407.325	0.0021
407.688	0.0023
408.051	0.0002
408.415	-0.0027
408.778	-0.0026
409.141	-0.0015
409.504	0.0022
409.867	0.0019
410.23	0.0023
410.593	0.0013
410.956	-0.002
411.319	-0.0059
411.682	-0.0062
412.045	-0.0057
412.408	-0.0026
412.771	-0.0021
413.134	0.0003
413.496	-0.0013
413.859	-0.0018
414.222	-0.0008
414.584	0.0015
414.947	0.0006
415.309	-0.0003
415.672	-0.0028
416.034	-0.0038
416.396	-0.005
416.759	-0.0039
417.121	-0.0034
417.483	-0.0036
417.846	-0.0043
418.208	-0.004
418.57	-0.0026
418.932	-0.0016
419.294	-0.0016
419.656	-0.0023
420.018	-0.0025
420.38	0.0002
420.742	-0.0002
421.104	0.0007
421.466	0.0029
421.827	0.0051
422.189	0.0029
422.551	-0.0026
422.912	-0.0057
423.274	-0.0028
423.636	-0.0019
423.997	0.0016
424.359	0.0009
424.72	0.0028
425.081	0.0019
425.443	0.0005
425.804	-0.0017
426.165	-0.0024
426.527	0.0002
426.888	0.0038
427.249	0.0057
427.61	0.0063
427.971	0.0037
428.332	0.0008
428.693	-0.002
429.054	-0.0021
429.415	-0.0034
429.776	-0.0022
430.137	-0.002
430.498	0.0001
430.858	-0.0012
431.219	-0.001
431.58	-0.0013
431.94	-0.0005
432.301	0.0002
432.661	-0.0002
433.022	-0.0012
433.382	-0.0019
433.743	-0.0005
434.103	-0.0012
434.463	-0.0027
434.824	-0.0048
435.184	-0.0021
435.544	-0.003
435.904	-0.001
436.264	-0.0025
436.624	0.0001
436.985	-0.0029
437.345	-0.0032
437.704	-0.0051
438.064	-0.0058
438.424	-0.0049
438.784	-0.0049
439.144	-0.0019
439.504	-0.0029
439.863	-0.0027
440.223	-0.0024
440.583	-0.0021
440.942	-0.0019
441.302	-0.0028
441.661	-0.0052
442.021	-0.0062
442.38	-0.0066
442.739	-0.0025
443.099	-0.0007
443.458	0.0004
443.817	-0.0005
444.176	-0.0002
444.536	-0.0007
444.895	-0.0007
445.254	-0.0002
445.613	0.0001
445.972	0.0007
446.331	-0.0024
446.69	-0.0044
447.049	-0.0056
447.407	-0.0031
447.766	-0.0012
448.125	-0.0014
448.484	-0.0024
448.842	-0.0004
449.201	-0.0003
449.559	-0.0014
449.918	-0.0048
450.276	-0.0066
450.635	-0.0041
450.993	-0.0016
451.352	-0.0012
451.71	-0.0015
452.068	-0.0037
452.426	-0.001
452.785	0.0023
453.143	0.0018
453.501	0.001
453.859	-0.0054
454.217	-0.0051
454.575	-0.0072
454.933	-0.0067
455.291	-0.0034
455.649	0.0001
456.006	0.0008
456.364	-0.0032
456.722	-0.0056
457.079	-0.0033
457.437	0.0001
457.795	0
458.152	-0.0012
458.51	-0.0012
458.867	-0.0028
459.225	-0.0021
459.582	-0.0037
459.939	-0.0027
460.297	-0.0058
460.654	-0.0079
461.011	-0.0076
461.368	-0.0058
461.725	-0.0029
462.082	-0.0026
462.44	-0.003
462.797	-0.0058
463.153	-0.0066
463.51	-0.0044
463.867	-0.0044
464.224	-0.0032
464.581	-0.0044
464.938	-0.0049
465.294	-0.0062
465.651	-0.0042
466.008	0.0003
466.364	0.003
466.721	0.0043
467.077	0.003
467.434	0.0021
467.79	-0.0001
468.146	0.0011
468.503	0.003
468.859	0.0003
469.215	-0.0016
469.571	-0.0054
469.927	-0.0038
470.284	-0.0054
470.64	-0.0034
470.996	-0.0035
471.352	-0.0007
471.707	-0.0026
472.063	-0.0043
472.419	-0.0022
472.775	-0.002
473.131	-0.0002
473.486	-0.0035
473.842	-0.0049
474.198	-0.0052
474.553	-0.0055
474.909	-0.003
475.264	-0.0023
475.62	-0.0022
475.975	-0.0015
476.331	-0.0027
476.686	-0.0032
477.041	-0.0023
477.396	-0.0023
477.752	0.0018
478.107	0.0004
478.462	0.0002
478.817	-0.0031
479.172	-0.0053
479.527	-0.0043
479.882	-0.0057
480.237	-0.0024
480.591	-0.0019
480.946	-0
481.301	-0.0016
481.656	-0.0021
482.01	-0.0012
482.365	-0.0009
482.72	0.0012
483.074	0.0003
483.429	-0.0005
483.783	-0.003
484.137	-0.0022
484.492	-0.0008
484.846	0.001
485.2	-0.001
485.555	-0
485.909	0.0014
486.263	0.0021
486.617	-0.0014
486.971	-0.0034
487.325	-0.0018
487.679	0.0009
488.033	-0.0014
488.387	-0.0014
488.741	-0.0028
489.094	-0.0037
489.448	-0.0062
489.802	-0.0056
490.156	-0.005
490.509	-0.0048
490.863	-0.0063
491.216	-0.0043
491.57	-0.0031
491.923	0.0001
492.277	-0.0007
492.63	-0.002
492.983	-0.0054
493.337	-0.0041
493.69	-0.0018
494.043	-0.0007
494.396	-0.0011
494.749	-0.0025
495.102	-0.0034
495.455	-0.0033
495.808	-0.0043
496.161	-0.0018
496.514	-0.0009
496.867	0.001
497.22	-0.001
497.572	-0.0032
497.925	-0.0044
498.278	-0.0043
498.63	-0.0023
498.983	0.0001
499.335	0.0019
499.688	0.0002
500.04	-0.0011
500.393	-0.0022
500.745	-0.0022
501.097	-0.0019
501.449	-0.0032
501.802	-0.003
502.154	-0.0031
502.506	-0.0024
502.858	-0.0036
503.21	-0.0039
503.562	-0.0052
503.914	-0.0023
504.266	-0.0024
504.618	-0.0034
504.969	-0.0042
505.321	-0.0037
505.673	-0.0029
506.025	-0.005
506.376	-0.0065
506.728	-0.0072
507.079	-0.0048
507.431	-0.0066
507.782	-0.0025
508.134	-0.0032
508.485	-0.0021
508.836	-0.0042
509.188	-0.0047
509.539	-0.0023
509.89	-0.0032
510.241	-0.0051
510.592	-0.0044
510.943	-0.0036
511.294	-0.0042
511.645	-0.0057
511.996	-0.0077
512.347	-0.0047
512.698	-0.0055
513.049	-0.0052
513.399	-0.0051
513.75	-0.0073
514.101	-0.0054
514.451	-0.006
514.802	-0.0054
515.152	-0.0068
515.503	-0.0038
515.853	0.0015
516.203	0.0028
516.554	0.0005
516.904	-0.0026
517.254	-0.004
517.604	-0.0037
517.955	-0.0053
518.305	-0.0039
518.655	-0.0042
519.005	-0.0055
519.355	-0.004
519.705	-0.0044
520.055	-0.0036
520.404	-0.0077
520.754	-0.0089
521.104	-0.0091
521.454	-0.0058
521.803	-0.0037
522.153	-0.0014
522.502	-0.0063
522.852	-0.0079
523.201	-0.01
523.551	-0.0056
523.9	-0.0044
524.249	0.0004
524.599	-0.0014
524.948	-0.0014
525.297	-0.0043
525.646	-0.0012
525.995	-0.0041
526.344	-0.0031
526.694	-0.0037
527.042	-0.0018
527.391	-0.004
527.74	-0.0058
528.089	-0.006
528.438	-0.0038
528.787	-0.0025
529.135	-0.0005
529.484	-0.0037
529.833	-0.0035
530.181	-0.0054
530.53	-0.0038
530.878	-0.0041
531.227	-0.0028
531.575	-0.0036
531.923	-0.0057
532.271	-0.0078
532.62	-0.0079
532.968	-0.0048
533.316	-0.0032
533.664	-0.0019
534.012	-0.0023
534.36	-0.0039
534.708	-0.0043
535.056	-0.0037
535.404	-0.0019
535.752	-0.0024
536.1	-0.0051
536.447	-0.0074
536.795	-0.0063
537.143	-0.0044
537.49	-0.0013
537.838	-0.0007
538.185	-0.0027
538.533	-0.0066
538.88	-0.0071
539.228	-0.0065
539.575	-0.0043
539.922	-0.0047
540.269	-0.0042
540.617	-0.0023
540.964	-0.0049
541.311	-0.0058
541.658	-0.0072
542.005	-0.0076
542.352	-0.0084
542.699	-0.0091
543.045	-0.0067
543.392	-0.0043
543.739	-0.0042
544.086	-0.005
544.432	-0.0071
544.779	-0.0057
545.126	-0.0068
545.472	-0.0067
545.819	-0.0112
546.165	-0.0101
546.512	-0.0093
546.858	-0.0039
547.204	-0.0057
547.55	-0.0039
547.897	-0.0052
548.243	-0.0029
548.589	-0.0051
548.935	-0.007
549.281	-0.008
549.627	-0.0053
549.973	-0.004
550.319	-0.0038
550.665	-0.005
551.01	-0.0077
551.356	-0.0084
551.702	-0.009
552.048	-0.0079
552.393	-0.0065
552.739	-0.0072
553.084	-0.0043
553.43	-0.0056
553.775	-0.0032
554.12	-0.0038
554.466	-0.0032
554.811	-0.0059
555.156	-0.0066
555.502	-0.0068
555.847	-0.0039
556.192	-0.0043
556.537	-0.0027
556.882	-0.0066
557.227	-0.0078
557.572	-0.0086
557.917	-0.0064
558.261	-0.0027
558.606	-0.0047
558.951	-0.007
559.295	-0.0074
559.64	-0.0051
559.985	-0.0037
560.329	-0.0091
560.674	-0.0122
561.018	-0.0107
561.363	-0.0098
561.707	-0.009
562.051	-0.0098
562.395	-0.0063
562.74	-0.0059
563.084	-0.0071
563.428	-0.0091
563.772	-0.0084
564.116	-0.0095
564.46	-0.0094
564.804	-0.0069
565.148	-0.0068
565.492	-0.0034
565.835	-0.0043
566.179	-0.0047
566.523	-0.0074
566.866	-0.0087
567.21	-0.0087
567.554	-0.0117
567.897	-0.0131
568.24	-0.0139
568.584	-0.0114
568.927	-0.0079
569.271	-0.0069
569.614	-0.0056
569.957	-0.007
570.3	-0.0042
570.643	-0.0026
570.986	-0.0046
571.329	-0.0057
571.672	-0.0071
572.015	-0.0057
572.358	-0.0047
572.701	-0.005
573.044	-0.0044
573.387	-0.0067
573.729	-0.0052
574.072	-0.0054
574.414	-0.0069
574.757	-0.0074
575.099	-0.0114
575.442	-0.0127
575.784	-0.0117
576.127	-0.0061
576.469	-0.0032
576.811	-0.0059
577.153	-0.0077
577.496	-0.0079
577.838	-0.0041
578.18	-0.0052
578.522	-0.0056
578.864	-0.0103
579.206	-0.0071
579.548	-0.0054
579.889	-0.0048
580.231	-0.0057
580.573	-0.0026
580.915	-0.0029
581.256	-0.0071
581.598	-0.0096
581.939	-0.0116
582.281	-0.0047
582.622	-0.0049
582.964	-0.0048
583.305	-0.007
583.646	-0.0084
583.988	-0.0019
584.329	-0.0003
584.67	-0.0042
585.011	-0.0086
585.352	-0.0133
585.693	-0.0115
586.034	-0.0127
586.375	-0.013
586.716	-0.0082
587.057	-0.007
587.398	-0.0056
587.738	-0.0051
588.079	-0.0059
588.42	-0.0067
588.76	-0.0091
589.101	-0.0082
589.441	-0.0073
589.782	-0.006
590.122	-0.0026
590.463	-0.0024
590.803	-0.0054
591.143	-0.0048
591.483	-0.0052
591.823	-0.0058
592.164	-0.0091
592.504	-0.0072
592.844	-0.0065
593.184	-0.0062
593.523	-0.0069
593.863	-0.006
594.203	-0.0072
594.543	-0.0043
594.883	-0.0074
595.222	-0.0075
595.562	-0.0034
595.901	-0.0027
596.241	-0.0051
596.58	-0.0097
596.92	-0.0097
597.259	-0.0094
597.599	-0.0101
597.938	-0.0072
598.277	-0.0056
598.616	-0.0065
598.955	-0.0096
599.295	-0.009
599.634	-0.0075
599.973	-0.0039
600.312	-0.0063
600.65	-0.0099
600.989	-0.013
601.328	-0.0088
601.667	0.0015
602.005	-0.0007
602.344	-0.0048
602.683	-0.01
603.021	-0.0079
603.36	-0.0096
603.698	-0.011
604.037	-0.0127
604.375	-0.0107
604.713	-0.0119
605.052	-0.0119
605.39	-0.0107
605.728	-0.0071
606.066	0.0004
606.404	0.0006
606.742	-0.0035
607.08	-0.0054
607.418	-0.0074
607.756	-0.0044
608.094	-0.0043
608.431	-0.0026
608.769	-0.0011
609.107	-0.0053
609.444	-0.0047
609.782	-0.0089
610.12	-0.0063
610.457	-0.0058
610.794	-0.0056
611.132	-0.0074
611.469	-0.0078
611.806	-0.0106
612.144	-0.0123
612.481	-0.0145
612.818	-0.0086
613.155	-0.0052
613.492	-0.005
613.829	-0.0061
614.166	-0.004
614.503	-0.0029
614.84	-0.0064
615.176	-0.0084
615.513	-0.006
615.85	-0.004
616.187	-0.0056
616.523	-0.008
616.86	-0.0073
617.196	-0.0032
617.533	-0.0008
617.869	-0.0056
618.205	-0.0077
618.542	-0.0074
618.878	-0.0064
619.214	-0.006
619.55	-0.0092
619.886	-0.0074
620.222	-0.007
620.558	-0.0052
620.894	-0.0077
621.23	-0.0084
621.566	-0.0093
621.902	-0.0066
622.238	-0.011
622.573	-0.0068
622.909	-0.01
623.244	-0.0087
623.58	-0.0142
623.916	-0.0137
624.251	-0.0105
624.586	-0.0045
624.922	-0.0024
625.257	-0.0062
625.592	-0.0123
625.927	-0.0103
626.263	-0.0086
626.598	-0.0075
626.933	-0.0098
627.268	-0.0081
627.603	-0.0056
627.938	-0.0076
628.272	-0.005
628.607	-0.006
628.942	-0.0067
629.277	-0.0089
629.611	-0.0118
629.946	-0.009
630.281	-0.0131
630.615	-0.0122
630.949	-0.0144
631.284	-0.0099
631.618	-0.0039
631.953	-0.002
632.287	-0.0059
632.621	-0.0101
632.955	-0.0104
633.289	-0.0091
633.623	-0.0141
633.957	-0.0118
634.291	-0.0132
634.625	-0.0067
634.959	-0.0105
635.293	-0.007
635.627	-0.008
635.96	-0.0058
636.294	-0.0012
636.627	-0.0024
636.961	0.0005
637.294	-0.0051
637.628	-0.006
637.961	-0.0072
638.295	-0.0107
638.628	-0.0041
638.961	-0.0006
639.294	0.0038
639.628	-0.0031
639.961	-0.0092
640.294	-0.0152
640.627	-0.0149
640.96	-0.0136
641.293	-0.0134
641.625	-0.0108
641.958	-0.015
642.291	-0.0078
642.624	-0.0056
642.956	-0.0043
643.289	-0.0067
643.621	-0.0064
643.954	-0.0065
644.286	-0.0068
644.619	-0.0097
644.951	-0.005
645.283	-0.0076
645.616	-0.0069
645.948	-0.0059
646.28	-0.0047
646.612	-0.0074
646.944	-0.0075
647.276	-0.0061
647.608	-0.0067
647.94	-0.0108
648.272	-0.0156
648.603	-0.0131
648.935	-0.0119
649.267	-0.0078
649.598	-0.0101
649.93	-0.0089
650.261	-0.0095
650.593	-0.0109
650.924	-0.0083
651.256	-0.006
651.587	-0.002
651.918	-0.0075
652.25	-0.0101
652.581	-0.0127
652.912	-0.0074
653.243	-0.0058
653.574	-0.004
653.905	-0.0058
654.236	-0.0083
654.567	-0.0084
654.897	-0.0099
655.228	-0.0055
655.559	-0.005
655.89	-0.0029
656.22	-0.005
656.551	-0.009
656.881	-0.0103
657.212	-0.0095
657.542	-0.0047
657.872	-0.0084
658.203	-0.0126
658.533	-0.0016
658.863	0.0098
659.193	-0.0062
659.523	-0.0111
659.853	-0.0268
660.183	-0.015
660.513	-0.0105
660.843	-0.0089
661.173	-0.0112
661.503	-0.0123
661.833	-0.0124
662.162	-0.007
662.492	-0.0044
662.822	-0.0014
663.151	-0.0061
663.481	-0.0061
663.81	-0.0071
664.139	-0.0074
664.469	-0.0086
664.798	-0.0111
665.127	-0.01
665.456	-0.0095
665.785	-0.0073
666.114	-0.0039
666.443	-0.0046
666.772	-0.0074
667.101	-0.0085
667.43	-0.0067
667.759	-0.0045
668.088	-0.009
668.416	-0.0131
668.745	-0.0137
669.074	-0.0076
669.402	-0.0067
669.731	-0.0089
670.059	-0.008
670.388	-0.0091
670.716	-0.0099
671.044	-0.0112
671.372	-0.0077
671.701	-0.0013
672.029	-0.0056
672.357	-0.0079
672.685	-0.0108
673.013	-0.0082
673.341	-0.0014
673.669	-0.0007
673.996	-0.0017
674.324	-0.0024
674.652	-0.004
674.98	-0.0074
675.307	-0.0158
675.635	-0.0165
675.962	-0.0137
676.29	-0.0099
676.617	-0.0076
676.945	-0.0068
677.272	-0.0092
677.599	-0.0087
677.926	-0.0051
678.253	-0.0039
678.581	-0.0082
678.908	-0.0159
679.235	-0.0143
679.561	-0.013
679.888	-0.0114
680.215	-0.0119
680.542	-0.0068
680.869	-0.0105
681.195	-0.0106
681.522	-0.0155
681.849	-0.012
682.175	-0.015
682.502	-0.0173
682.828	-0.0171
683.154	-0.014
683.481	-0.0116
683.807	-0.013
684.133	-0.0093
684.459	-0.0069
684.785	-0.0037
685.111	-0.0083
685.437	-0.0111
685.763	-0.0093
686.089	-0.0118
686.415	-0.0124
686.741	-0.0138
687.067	-0.0077
687.392	-0.0037
687.718	-0.0043
688.043	-0.0069
688.369	-0.0067
688.694	-0.0065
689.02	-0.007
689.345	-0.0064
689.67	-0.0079
689.996	-0.0035
690.321	-0.0038
690.646	-0.0032
690.971	-0.0012
691.296	-0.0075
691.621	-0.0101
691.946	-0.0145
692.271	-0.0117
692.596	-0.0059
692.921	-0.0063
693.245	-0.0023
693.57	-0.0057
693.895	-0.0068
694.219	-0.0121
694.544	-0.011
694.868	-0.0092
695.193	-0.0085
695.517	-0.0048
695.841	-0.0073
696.166	-0.0062
696.49	-0.0127
696.814	-0.0112
697.138	-0.0125
697.462	-0.0094
697.786	-0.0135
698.11	-0.0137
698.434	-0.0119
698.758	-0.012
699.081	-0.0112
699.405	-0.0159
699.729	-0.0067
700.052	-0.0055
700.376	-0.006
700.7	-0.0107
701.023	-0.0133
701.346	-0.0113
701.67	-0.0094
701.993	-0.0061
702.316	-0.0085
702.639	-0.0122
702.963	-0.0132
703.286	-0.0123
703.609	-0.0145
703.932	-0.0129
704.255	-0.0114
704.578	-0.01
704.9	-0.0058
705.223	-0.0074
705.546	-0.0008
705.868	-0.0061
706.191	-0.0083
706.514	-0.0107
706.836	-0.0116
707.159	-0.0071
707.481	-0.0076
707.803	-0.0068
708.126	-0.0073
708.448	-0.0084
708.77	-0.0106
709.092	-0.01
709.414	-0.0099
709.736	-0.006
710.058	-0.0016
710.38	-0.0039
710.702	-0.0013
711.024	-0.0088
711.345	-0.0083
711.667	-0.0125
711.989	-0.0097
712.31	-0.0095
712.632	-0.0097
712.953	-0.009
713.275	-0.0113
713.596	-0.0062
713.917	-0.009
714.239	-0.0039
714.56	-0.0078
714.881	-0.0032
715.202	-0.0069
715.523	-0.0064
715.844	-0.01
716.165	-0.0086
716.486	-0.0073
716.807	-0.007
717.128	-0.0085
717.448	-0.0093
717.769	-0.0072
718.09	-0.0071
718.41	-0.0097
718.731	-0.0117
719.051	-0.0149
719.372	-0.0119
719.692	-0.0092
720.012	-0.0016
720.332	-0.0072
720.653	-0.0074
720.973	-0.0057
721.293	-0.0055
721.613	-0.0089
721.933	-0.0151
722.253	-0.0099
722.573	-0.0046
722.892	-0.0007
723.212	-0.0062
723.532	-0.0076
723.851	-0.0102
724.171	-0.0093
724.491	-0.0112
724.81	-0.0075
725.129	-0.0067
725.449	-0.006
725.768	-0.0077
726.087	-0.0051
726.407	-0.006
726.726	-0.004
727.045	-0.0033
727.364	0.0003
727.683	-0.0027
728.002	-0.0072
728.321	-0.0085
728.64	-0.0087
728.958	-0.0102
729.277	-0.0071
729.596	-0.0061
729.914	-0.0011
730.233	-0.0056
730.551	-0.0095
730.87	-0.0099
731.188	-0.0075
731.507	-0.0025
731.825	-0.0051
732.143	-0.0091
732.461	-0.0105
732.779	-0.0103
733.097	-0.0123
733.415	-0.0133
733.733	-0.0117
734.051	-0.0124
734.369	-0.01
734.687	-0.0093
735.005	-0.0088
735.322	-0.0097
735.64	-0.0075
735.957	-0.0055
736.275	-0.0109
736.592	-0.0151
736.91	-0.0117
737.227	-0.0094
737.544	-0.0068
737.862	-0.0102
738.179	-0.0049
738.496	-0.0082
738.813	-0.0084
739.13	-0.0127
739.447	-0.0136
739.764	-0.0107
740.081	-0.0063
740.398	-0.0079
740.714	-0.0125
741.031	-0.0167
741.348	-0.0157
741.664	-0.0113
741.981	-0.0073
742.297	-0.0038
742.614	-0.0074
742.93	-0.0124
743.246	-0.0152
743.563	-0.0134
743.879	-0.0102
744.195	-0.0095
744.511	-0.0063
744.827	-0.0096
745.143	-0.0131
745.459	-0.012
745.775	-0.0125
746.091	-0.0072
746.406	-0.0097
746.722	-0.005
747.038	-0.0064
747.353	-0.0082
747.669	-0.0137
747.984	-0.0156
748.3	-0.0151
748.615	-0.0128
748.93	-0.0158
749.246	-0.021
749.561	-0.0215
749.876	-0.0161
750.191	-0.008
750.506	-0.0035
750.821	-0.0047
751.136	-0.0067
751.451	-0.0056
751.766	-0.0093
752.08	-0.007
752.395	-0.0094
752.71	-0.0062
753.024	-0.0086
753.339	-0.0071
753.653	-0.008
753.968	-0.0071
754.282	-0.0085
754.596	-0.0063
754.911	-0.0048
755.225	-0.0053
755.539	-0.0072
755.853	-0.0081
756.167	-0.0113
756.481	-0.0082
756.795	-0.0102
757.109	-0.0104
757.423	-0.0137
757.736	-0.0129
758.05	-0.0147
758.364	-0.0073
758.677	-0.0021
758.991	0.0026
759.304	-0.0002
759.618	-0.0088
759.931	-0.0114
760.244	-0.0128
760.558	-0.0089
760.871	-0.0094
761.184	-0.017
761.497	-0.0206
761.81	-0.0211
762.123	-0.0104
762.436	-0.0065
762.749	-0.0034
763.062	-0.0039
763.374	-0.0045
763.687	-0.0011
764	-0.0053
764.312	-0.0049
764.625	-0.0124
764.937	-0.011
765.25	-0.0161
765.562	-0.0075
765.874	-0.0023
766.186	-0.0008
766.499	-0.0056
766.811	-0.0095
767.123	-0.0058
767.435	-0.006
767.747	-0.0031
768.059	-0.0038
768.37	-0.0019
768.682	-0.0036
768.994	-0.0071
769.306	-0.0136
769.617	-0.0173
769.929	-0.01
770.24	-0.0002
770.552	0.0025
770.863	-0.0047
771.174	-0.008
771.486	-0.0109
771.797	-0.0095
772.108	-0.0132
772.419	-0.0135
772.73	-0.0126
773.041	-0.0078
773.352	-0.0061
773.663	-0.0069
773.974	-0.0075
774.285	-0.0064
774.595	-0.0143
774.906	-0.016
775.217	-0.019
775.527	-0.0106
775.838	-0.011
776.148	-0.0157
776.458	-0.0145
776.769	-0.0127
777.079	-0.0069
777.389	-0.0098
777.699	-0.0166
778.009	-0.0168
778.319	-0.0125
778.629	-0.0074
778.939	-0.0052
779.249	-0.0067
779.559	-0.0063
779.869	-0.0089
780.178	-0.0134
780.488	-0.0139
780.798	-0.0129
781.107	-0.0078
781.417	-0.008
781.726	-0.0095
782.035	-0.0124
782.345	-0.0128
782.654	-0.0085
782.963	-0.009
783.272	-0.0025
783.581	-0.0014
783.89	0.0014
784.199	0.0023
784.508	-0.0063
784.817	-0.0114
785.126	-0.0185
785.434	-0.0159
785.743	-0.0132
786.052	-0.0136
786.36	-0.0109
786.669	-0.0123
786.977	-0.0151
787.285	-0.0188
787.594	-0.016
787.902	-0.0087
788.21	0.0014
788.518	0.0012
788.826	-0.0046
789.135	-0.0133
789.442	-0.0193
789.75	-0.0192
790.058	-0.019
790.366	-0.0181
790.674	-0.0177
790.981	-0.0107
791.289	-0.0043
791.597	-0.0019
791.904	-0.0043
792.212	-0.0062
792.519	-0.0127
792.826	-0.014
793.134	-0.0154
793.441	-0.0097
793.748	-0.0096
794.055	-0.008
794.362	-0.0106
794.669	-0.0128
794.976	-0.016
795.283	-0.0101
795.59	-0.0025
795.897	-0.0019
796.203	-0.0043
796.51	-0.0079
796.817	-0.0004
797.123	-0.0028
797.43	-0.0046
797.736	-0.0129
798.042	-0.0162
798.349	-0.0157
798.655	-0.014
798.961	-0.01
799.267	-0.0108
799.573	-0.008
799.879	-0.0064
800.185	-0.0019
800.491	-0.003
800.797	-0.0073
801.103	-0.0141
801.408	-0.0116
801.714	-0.006
802.02	-0.0033
802.325	-0.0071
802.631	-0.0143
802.936	-0.0166
803.242	-0.0154
803.547	-0.0178
803.852	-0.017
804.157	-0.0098
804.462	-0.002
804.768	0.003
805.073	-0.0054
805.378	-0.0115
805.682	-0.0154
805.987	-0.0165
806.292	-0.0107
806.597	-0.0128
806.902	-0.0067
807.206	-0.0159
807.511	-0.0137
807.815	-0.0121
808.12	-0.0144
808.424	-0.0164
808.728	-0.0211
809.033	-0.0106
809.337	-0.0118
809.641	-0.0146
809.945	-0.0153
810.249	-0.0131
810.553	-0.0123
810.857	-0.0195
811.161	-0.0197
811.465	-0.0196
811.768	-0.0139
812.072	-0.0155
812.376	-0.0081
812.679	-0.004
812.983	-0.0005
813.286	-0.0025
813.59	0.0037
813.893	0.0114
814.196	0.0105
814.499	0.002
814.803	-0.0121
815.106	-0.0091
815.409	-0.0128
815.712	-0.0041
816.015	-0.0121
816.318	-0.0099
816.62	-0.0109
816.923	-0.0035
817.226	0.0032
817.528	-0.0032
817.831	-0.0076
818.133	-0.0176
818.436	-0.0169
818.738	-0.0163
819.041	-0.0189
819.343	-0.0135
819.645	-0.0196
819.947	-0.0126
820.249	-0.0176
820.551	-0.011
820.853	-0.0124
821.155	-0.0106
821.457	-0.0173
821.759	-0.0205
822.061	-0.0166
822.362	-0.0136
822.664	-0.0043
822.966	-0.0085
823.267	-0.0063
823.569	-0.0133
823.87	-0.0131
824.171	-0.0191
824.473	-0.0182
824.774	-0.0149
825.075	-0.001
825.376	0.0042
825.677	0.004
825.978	-0.0048
826.279	-0.0108
826.58	-0.0149
826.881	-0.0104
827.181	-0.0103
827.482	-0.0024
827.783	-0.0116
828.083	-0.0085
828.384	-0.0126
828.684	-0.0109
828.985	-0.0101
829.285	-0.0138
829.585	-0.0069
829.885	-0.0085
830.185	-0.0054
830.486	-0.0128
830.786	-0.0176
831.086	-0.0187
831.385	-0.017
831.685	-0.0116
831.985	-0.0024
832.285	-0.0034
832.585	0.0021
832.884	-0.0015
833.184	0.002
833.483	0.0022
833.783	-0.0045
834.082	-0.0066
834.381	-0.0193
834.681	-0.0226
834.98	-0.018
835.279	-0.014
835.578	-0.013
835.877	-0.0178
836.176	-0.0197
836.475	-0.01
836.774	-0.014
837.072	-0.0148
837.371	-0.0231
837.67	-0.0163
837.968	-0.0215
838.267	-0.0181
838.565	-0.0177
838.864	-0.0129
839.162	-0.0227
839.46	-0.0211
839.759	-0.0184
840.057	-0.0068
840.355	-0.0147
840.653	-0.0043
840.951	-0.0159
841.249	-0.0106
841.547	-0.0167
841.845	-0.0196
842.142	-0.012
842.44	-0.0176
842.738	-0.0075
843.035	-0.0328
843.333	-0.0502
843.63	-0.0553
843.928	-0.0366
844.225	-0.0139
844.522	-0.0016
844.82	0.0028
845.117	-0.0078
845.414	-0.0244
845.711	-0.0257
846.008	-0.0181
846.305	-0.0094
846.602	-0.0252
846.898	-0.0142
847.195	-0.0255
847.492	-0.0204
847.788	-0.0445
848.085	-0.0332
848.382	-0.0187
848.678	-0.0093
848.974	-0.0101
849.271	-0.0223
849.567	-0.0133
849.863	-0.0187
850.159	-0.026
850.455	-0.0243
850.751	-0.0062
851.047	-0.0057
851.343	-0.0143
851.639	-0.0401
851.935	-0.0194
852.23	-0.0171
852.526	0.0067
852.822	-0.0067
853.117	-0.0162
853.413	-0.0309
853.708	-0.0312
854.003	-0.0179
854.299	-0.0068
854.594	0.0052
854.889	0.0115
855.184	0.0017
855.479	-0.0099
855.774	-0.0201
856.069	-0.0063
856.364	-0.0011
856.659	-0.0077
856.954	-0.0271
857.248	-0.0448
857.543	-0.0351
857.837	-0.0245
858.132	0.0044
858.426	0.0031
858.721	0.0041
859.015	-0.0159
859.309	-0.0205
859.604	0.0008
859.898	0.0141
860.192	0.0006
860.486	0.0002
860.78	-0.0021
861.074	0.0085
861.367	-0.004
861.661	-0.0106
861.955	0.0045
862.248	0.0097
862.542	0.0047
862.836	-0.012
863.129	-0.0263
863.422	-0.0394
863.716	-0.0223
864.009	-0.0227
864.302	-0.0259
864.595	-0.0282
864.889	-0.0298
865.182	-0.0073
865.475	-0.0104
865.767	-0.0117
866.06	0.0104
866.353	-0.0026
866.646	-0.0265
866.938	-0.0614
867.231	-0.036
867.524	0.0021
867.816	0.0131
868.109	-0.0055
868.401	-0.0225
868.693	-0.0352
868.985	-0.0329
869.278	-0.0391
869.57	-0.0395
869.862	-0.0489
870.154	-0.0341
870.446	-0.0305
870.738	-0.0194
871.029	-0.0174
871.321	-0.0168
871.613	-0.0048
871.904	-0.0274
872.196	-0.0345
872.487	-0.0542
872.779	-0.0415
873.07	-0.0005
873.362	0.0127
873.653	0.0269
873.944	-0.0135
874.235	-0.0024
874.526	-0.0061
874.817	0.0018
875.108	-0.0114
875.399	-0.0325
875.69	-0.0456
875.981	-0.0443
876.271	-0.0287
876.562	-0.0147
876.853	-0.0258
877.143	-0.0134
877.434	-0.025
877.724	-0.0219
878.014	-0.0203
878.305	-0.0002
878.595	-0.0049
878.885	-0.0095
879.175	-0.0033
879.465	0.0084
879.755	0.0189
880.045	0.0002
880.335	-0.0096
880.624	-0.0436
880.914	-0.0436
