Data from 31SS02FU-2_072917_1a_Absorbance_16-39-22-424.txt Node
Date: Wed Aug 02 16:39:22 MDT 2017
User: Tank Lab
Spectrometer: FLMS01220
Trigger mode: 0
Integration Time (sec): 1.000000E-1
Scans to average: 10
Electric dark correction enabled: true
Nonlinearity correction enabled: false
Boxcar width: 1
XAxis mode: Wavelengths
Number of Pixels in Spectrum: 2048
>>>>>Begin Spectral Data<<<<<
179.47	-0.4394
179.856	-0.4394
180.241	-0
180.626	-0.8229
181.011	-0.3918
181.396	-0
181.781	-0
182.166	-0.4178
182.551	-0
182.936	-0
183.321	-0
183.706	0.5494
184.091	0.3663
184.476	-0
184.86	-0
185.245	0.0477
185.63	-0.2116
186.015	-0
186.399	-0
186.784	0.1835
187.169	-0
187.553	-0
187.938	0.124
188.322	-0.0047
188.707	0.0161
189.091	0.0215
189.475	0.0268
189.86	0.0627
190.244	0.057
190.629	0.092
191.013	0.1244
191.397	0.2033
191.781	0.2538
192.165	0.3099
192.55	0.3262
192.934	0.3424
193.318	0.3519
193.702	0.3819
194.086	0.4207
194.47	0.4302
194.854	0.4285
195.238	0.417
195.622	0.4221
196.006	0.427
196.389	0.4188
196.773	0.4037
197.157	0.396
197.541	0.3826
197.924	0.3596
198.308	0.3337
198.692	0.3218
199.075	0.3119
199.459	0.3005
199.843	0.2792
200.226	0.2649
200.61	0.2513
200.993	0.2386
201.376	0.2333
201.76	0.2255
202.143	0.2238
202.527	0.214
202.91	0.2099
203.293	0.203
203.676	0.1999
204.059	0.1919
204.443	0.1868
204.826	0.177
205.209	0.1735
205.592	0.1694
205.975	0.1692
206.358	0.1668
206.741	0.1675
207.124	0.1682
207.507	0.1673
207.89	0.1643
208.273	0.1594
208.655	0.1566
209.038	0.1551
209.421	0.155
209.804	0.1538
210.186	0.1518
210.569	0.1491
210.951	0.1473
211.334	0.1477
211.717	0.1478
212.099	0.1465
212.482	0.1426
212.864	0.1425
213.246	0.1395
213.629	0.1381
214.011	0.1354
214.393	0.135
214.776	0.1339
215.158	0.1316
215.54	0.1282
215.922	0.1244
216.305	0.1214
216.687	0.1175
217.069	0.1165
217.451	0.1153
217.833	0.1141
218.215	0.1121
218.597	0.1081
218.979	0.1071
219.361	0.1033
219.742	0.1009
220.124	0.0976
220.506	0.0936
220.888	0.0894
221.27	0.0884
221.651	0.0873
222.033	0.0887
222.415	0.0853
222.796	0.0812
223.178	0.0746
223.559	0.0707
223.941	0.0694
224.322	0.0683
224.704	0.0669
225.085	0.0647
225.466	0.0622
225.848	0.0581
226.229	0.0558
226.61	0.0554
226.992	0.0551
227.373	0.0526
227.754	0.0474
228.135	0.0453
228.516	0.0442
228.897	0.0458
229.278	0.0429
229.659	0.0404
230.04	0.038
230.421	0.0367
230.802	0.038
231.183	0.0377
231.564	0.0373
231.944	0.0333
232.325	0.0309
232.706	0.0309
233.087	0.0297
233.467	0.0285
233.848	0.0266
234.229	0.0263
234.609	0.0253
234.99	0.024
235.37	0.0229
235.751	0.0224
236.131	0.0208
236.511	0.0217
236.892	0.0217
237.272	0.0215
237.652	0.0204
238.033	0.0194
238.413	0.0189
238.793	0.0197
239.173	0.0186
239.553	0.0177
239.933	0.0156
240.313	0.0179
240.694	0.0195
241.074	0.0192
241.453	0.0172
241.833	0.0186
242.213	0.0186
242.593	0.0168
242.973	0.0139
243.353	0.0137
243.732	0.0151
244.112	0.0146
244.492	0.0144
244.872	0.0131
245.251	0.0145
245.631	0.0145
246.01	0.0149
246.39	0.0148
246.769	0.0147
247.149	0.0151
247.528	0.0145
247.908	0.0144
248.287	0.0143
248.666	0.0131
249.045	0.013
249.425	0.0124
249.804	0.0135
250.183	0.0133
250.562	0.0142
250.941	0.0149
251.32	0.015
251.699	0.0138
252.078	0.0133
252.457	0.0132
252.836	0.0148
253.215	0.0123
253.594	0.0128
253.973	0.0093
254.352	0.0106
254.731	0.0101
255.109	0.0129
255.488	0.0132
255.867	0.014
256.245	0.0134
256.624	0.0131
257.002	0.0128
257.381	0.0138
257.759	0.0141
258.138	0.0136
258.516	0.0115
258.895	0.0115
259.273	0.0114
259.651	0.0129
260.03	0.0132
260.408	0.0139
260.786	0.0132
261.164	0.0126
261.542	0.011
261.921	0.0114
262.299	0.0116
262.677	0.0122
263.055	0.0131
263.433	0.0134
263.811	0.0125
264.188	0.0109
264.566	0.0102
264.944	0.0102
265.322	0.0112
265.7	0.0113
266.077	0.0122
266.455	0.0103
266.833	0.0088
267.21	0.0091
267.588	0.0112
267.966	0.011
268.343	0.0104
268.721	0.0084
269.098	0.0103
269.475	0.0106
269.853	0.0116
270.23	0.0106
270.607	0.0098
270.985	0.0096
271.362	0.0105
271.739	0.0099
272.116	0.0099
272.494	0.0097
272.871	0.0108
273.248	0.0102
273.625	0.0092
274.002	0.0095
274.379	0.0091
274.756	0.009
275.132	0.0084
275.509	0.0078
275.886	0.0093
276.263	0.01
276.64	0.0104
277.016	0.0101
277.393	0.0096
277.77	0.0108
278.146	0.0105
278.523	0.0105
278.899	0.0089
279.276	0.0084
279.652	0.0078
280.029	0.0075
280.405	0.0082
280.782	0.0076
281.158	0.0092
281.534	0.0088
281.91	0.0093
282.287	0.0082
282.663	0.0084
283.039	0.0081
283.415	0.0087
283.791	0.0088
284.167	0.0092
284.543	0.0087
284.919	0.0068
285.295	0.0069
285.671	0.0075
286.047	0.0075
286.423	0.0074
286.799	0.0072
287.174	0.0094
287.55	0.0081
287.926	0.0074
288.301	0.0066
288.677	0.0085
289.053	0.0088
289.428	0.008
289.804	0.0077
290.179	0.0074
290.555	0.007
290.93	0.0064
291.305	0.0062
291.681	0.0078
292.056	0.0069
292.431	0.0071
292.806	0.006
293.182	0.0068
293.557	0.0078
293.932	0.0084
294.307	0.0084
294.682	0.0067
295.057	0.0055
295.432	0.0063
295.807	0.0065
296.182	0.0081
296.557	0.0073
296.932	0.0079
297.306	0.0082
297.681	0.0088
298.056	0.0084
298.43	0.0065
298.805	0.0055
299.18	0.0056
299.554	0.0066
299.929	0.0075
300.303	0.0078
300.678	0.0079
301.052	0.008
301.427	0.0066
301.801	0.0064
302.175	0.0063
302.55	0.0069
302.924	0.0058
303.298	0.0047
303.672	0.0052
304.046	0.005
304.421	0.0047
304.795	0.0052
305.169	0.0054
305.543	0.0073
305.917	0.0072
306.291	0.0092
306.664	0.0069
307.038	0.0062
307.412	0.0043
307.786	0.0068
308.16	0.0069
308.533	0.0071
308.907	0.006
309.281	0.0057
309.654	0.0069
310.028	0.0065
310.401	0.0073
310.775	0.0066
311.148	0.0065
311.522	0.006
311.895	0.0062
312.268	0.0048
312.642	0.0042
313.015	0.0041
313.388	0.0073
313.761	0.0079
314.135	0.0068
314.508	0.0051
314.881	0.005
315.254	0.0068
315.627	0.007
316	0.0062
316.373	0.0067
316.746	0.0063
317.118	0.0072
317.491	0.0056
317.864	0.0069
318.237	0.0064
318.61	0.0062
318.982	0.0052
319.355	0.0063
319.727	0.0075
320.1	0.0071
320.473	0.0072
320.845	0.0058
321.218	0.0059
321.59	0.0043
321.962	0.0036
322.335	0.0032
322.707	0.0039
323.079	0.0048
323.452	0.0066
323.824	0.006
324.196	0.0059
324.568	0.0033
324.94	0.0049
325.312	0.005
325.684	0.0071
326.056	0.0055
326.428	0.0049
326.8	0.0038
327.172	0.004
327.544	0.0024
327.915	0.0025
328.287	0.0025
328.659	0.0036
329.031	0.0036
329.402	0.0038
329.774	0.0038
330.145	0.0039
330.517	0.0021
330.888	0.0033
331.26	0.003
331.631	0.004
332.003	0.0035
332.374	0.0037
332.745	0.0048
333.117	0.0044
333.488	0.0035
333.859	0.0026
334.23	0.0022
334.601	0.0028
334.972	0.0031
335.343	0.0037
335.714	0.004
336.085	0.0048
336.456	0.0045
336.827	0.0036
337.198	0.004
337.569	0.0038
337.94	0.0018
338.31	-0.0005
338.681	-0.0013
339.052	0.0022
339.422	0.0046
339.793	0.0064
340.164	0.0057
340.534	0.0043
340.905	0.0026
341.275	0.0033
341.645	0.0037
342.016	0.0035
342.386	0.0036
342.756	0.0026
343.127	0.0044
343.497	0.0039
343.867	0.0048
344.237	0.003
344.607	0.0031
344.977	0.0037
345.347	0.0045
345.717	0.0031
346.087	0.0024
346.457	0.0013
346.827	0.0027
347.197	0.0022
347.567	0.0038
347.936	0.0029
348.306	0.002
348.676	0.002
349.046	0.0026
349.415	0.0047
349.785	0.0036
350.154	0.0038
350.524	0.0019
350.893	0.001
351.263	0.0012
351.632	0.0016
352.001	0.0035
352.371	0.0025
352.74	0.0034
353.109	0.0026
353.478	0.0015
353.847	0.0023
354.217	0.0015
354.586	0.0044
354.955	0.0034
355.324	0.0055
355.693	0.0029
356.062	0.0029
356.43	0.001
356.799	0.0019
357.168	0.0019
357.537	0.0014
357.906	0.0008
358.274	0.0005
358.643	0.0014
359.011	0.0019
359.38	0.0021
359.749	0.0022
360.117	0.0008
360.486	0.0013
360.854	0.0025
361.222	0.0039
361.591	0.0041
361.959	0.0024
362.327	0.0034
362.695	0.0018
363.064	0.0018
363.432	0.0019
363.8	0.0041
364.168	0.0048
364.536	0.0035
364.904	0.003
365.272	0.0006
365.64	0.0014
366.008	0.0006
366.376	0.003
366.743	0.0011
367.111	0.0015
367.479	0.0016
367.847	0.002
368.214	0.0012
368.582	0.0008
368.949	0.0001
369.317	0.0006
369.684	0.0011
370.052	0.0019
370.419	0.0028
370.787	0.0028
371.154	0.0032
371.521	0.0011
371.889	-0.0006
372.256	-0.0026
372.623	-0.0022
372.99	-0.0009
373.357	-0.0004
373.724	0.0002
374.091	0.0008
374.458	0.0012
374.825	-0.0003
375.192	-0.0002
375.559	0.0006
375.926	0.001
376.293	-0.0007
376.659	-0.0027
377.026	-0.0022
377.393	-0.0001
377.759	0.001
378.126	0.0011
378.492	-0.0004
378.859	0.0005
379.225	0.0006
379.592	0.0019
379.958	0.0018
380.325	0.0006
380.691	0.0001
381.057	-0.0006
381.423	-0.0001
381.79	-0.0002
382.156	-0.0003
382.522	0.001
382.888	0.0014
383.254	0.0014
383.62	0.0012
383.986	0.0014
384.352	0.0016
384.718	0.0024
385.084	0.0002
385.449	0.0017
385.815	0.0004
386.181	0.0009
386.547	0
386.912	-0.0014
387.278	0.0012
387.643	0.0024
388.009	0.0056
388.374	0.0035
388.74	0.0051
389.105	0.0025
389.471	0.0042
389.836	0.002
390.201	0.0043
390.566	0.0041
390.932	0.0046
391.297	0.0044
391.662	0.0028
392.027	0.0019
392.392	-0.0009
392.757	-0.0022
393.122	-0.0013
393.487	0.0012
393.852	0.0024
394.217	-0.0003
394.582	0.0014
394.946	0.0034
395.311	0.0054
395.676	0.0026
396.04	-0.0014
396.405	-0.0028
396.77	-0.0028
397.134	-0.0002
397.499	0.0024
397.863	0.003
398.227	0.0015
398.592	0.0011
398.956	0.0002
399.32	0.0023
399.685	0.0011
400.049	0.001
400.413	-0.0004
400.777	0.0001
401.141	0.0011
401.505	0.0017
401.869	0.0012
402.233	0.001
402.597	-0.0001
402.961	-0.0001
403.325	0.0005
403.689	0.002
404.053	0.0035
404.416	0.0045
404.78	0.0032
405.144	0.0018
405.507	-0.0021
405.871	-0.0011
406.234	-0.0008
406.598	0.0024
406.961	0.0038
407.325	0.0013
407.688	-0.001
408.051	-0.002
408.415	0.0006
408.778	0.0024
409.141	0.0026
409.504	0.0011
409.867	0.0021
410.23	0.0015
410.593	0.0011
410.956	-0.0027
411.319	-0.0046
411.682	-0.0034
412.045	-0.0022
412.408	-0.0013
412.771	0.0002
413.134	-0.0002
413.496	-0.0008
413.859	-0.0021
414.222	-0
414.584	0.0029
414.947	0.0023
415.309	0.0013
415.672	-0.0001
416.034	-0.0006
416.396	-0.0011
416.759	-0.0017
417.121	-0.0022
417.483	-0.0017
417.846	-0.0016
418.208	0.0003
418.57	0.0006
418.932	0.0011
419.294	-0.0002
419.656	0.001
420.018	-0.001
420.38	0.0018
420.742	0.0022
421.104	0.0053
421.466	0.0036
421.827	0.0043
422.189	0.0005
422.551	-0.0004
422.912	-0.0029
423.274	0.0013
423.636	-0.001
423.997	0.001
424.359	0.0004
424.72	0.0014
425.081	0.0021
425.443	0.002
425.804	0.0032
426.165	0.0002
426.527	0.0006
426.888	0.0014
427.249	0.0048
427.61	0.0039
427.971	0.0022
428.332	-0.0002
428.693	0.0002
429.054	0.0002
429.415	0.0003
429.776	0.0004
430.137	0.0022
430.498	0.0008
430.858	0.001
431.219	0.0007
431.58	0.0018
431.94	0.0005
432.301	0.001
432.661	0.0003
433.022	0.0023
433.382	0.0013
433.743	0.0028
434.103	0.0013
434.463	0.0022
434.824	0.0025
435.184	0.0021
435.544	-0.0004
435.904	-0.002
436.264	-0.0016
436.624	0.0024
436.985	0.0009
437.345	0.0002
437.704	-0.0038
438.064	-0.0018
438.424	-0.0013
438.784	0.0007
439.144	-0.0004
439.504	0.0023
439.863	0.0024
440.223	0.0033
440.583	0.0004
440.942	0.0002
441.302	-0.0013
441.661	-0.0009
442.021	-0.002
442.38	-0.0015
442.739	-0.0012
443.099	0.0012
443.458	0.002
443.817	0.0037
444.176	0.0048
444.536	0.0036
444.895	0.0023
445.254	0.0004
445.613	0.0027
445.972	0.0018
446.331	0.0011
446.69	-0.0009
447.049	-0.0019
447.407	-0.0032
447.766	-0.0027
448.125	-0.002
448.484	-0
448.842	0.0016
449.201	0.0025
449.559	0.0015
449.918	-0.0012
450.276	-0.0029
450.635	-0.0014
450.993	0.0003
451.352	0.0008
451.71	0.0017
452.068	0.0008
452.426	0.003
452.785	0.0021
453.143	0.0023
453.501	0.0006
453.859	-0.003
454.217	-0.0016
454.575	-0.002
454.933	-0.0007
455.291	-0.0028
455.649	-0.001
456.006	0.0006
456.364	0.002
456.722	0.0024
457.079	0.0048
457.437	0.0037
457.795	0.0011
458.152	-0.001
458.51	-0.0001
458.867	-0.0002
459.225	-0.0015
459.582	-0.0021
459.939	-0.0014
460.297	-0.0016
460.654	-0.0029
461.011	-0.0046
461.368	-0.0064
461.725	-0.0032
462.082	-0.0025
462.44	0.0002
462.797	-0.005
463.153	-0.0035
463.51	-0.0018
463.867	0.003
464.224	0.0031
464.581	0.0037
464.938	0.0039
465.294	0.0034
465.651	0.0033
466.008	0.0011
466.364	0.0011
466.721	0.0039
467.077	0.0056
467.434	0.0079
467.79	0.0036
468.146	0.0031
468.503	0.0033
468.859	0.0026
469.215	0.0026
469.571	-0.001
469.927	-0.0013
470.284	-0.0012
470.64	0.0007
470.996	0.0006
471.352	-0
471.707	-0.0029
472.063	-0.0039
472.419	-0.0016
472.775	-0.0003
473.131	0.0017
473.486	0.0007
473.842	0.0022
474.198	0.0028
474.553	0.0004
474.909	0.0002
475.264	0.0004
475.62	0.0021
475.975	0.0015
476.331	0.0001
476.686	0.0004
477.041	0.0018
477.396	0.0001
477.752	0.0018
478.107	0.0007
478.462	0.0026
478.817	0.0022
479.172	0.0004
479.527	-0.0019
479.882	-0.0038
480.237	-0.0008
480.591	0.0011
480.946	0.0018
481.301	-0.0005
481.656	0.0003
482.01	0.0012
482.365	0.004
482.72	0.0049
483.074	0.003
483.429	-0.0004
483.783	-0.0013
484.137	-0.0028
484.492	-0.0006
484.846	-0.0002
485.2	-0.0001
485.555	-0.0007
485.909	0.0007
486.263	0.0034
486.617	0.0032
486.971	0.0015
487.325	0.0024
487.679	0.0014
488.033	-0
488.387	-0.0026
488.741	-0.0022
489.094	-0.0017
489.448	-0.0025
489.802	-0.001
490.156	-0.0007
490.509	-0.0012
490.863	-0.0022
491.216	-0.0025
491.57	-0.0019
491.923	0.0001
492.277	0.0007
492.63	0.0002
492.983	-0.0016
493.337	-0.0007
493.69	0.0013
494.043	0.0023
494.396	0.0029
494.749	0.0032
495.102	0.003
495.455	0.0014
495.808	-0.0011
496.161	0.0003
496.514	0.0003
496.867	0.0026
497.22	0.0008
497.572	-0.0003
497.925	-0.0018
498.278	-0.0014
498.63	-0.0008
498.983	0.0017
499.335	0.0016
499.688	0.0015
500.04	-0
500.393	-0.0013
500.745	-0.0005
501.097	-0.0021
501.449	-0.0012
501.802	-0.002
502.154	-0.0009
502.506	-0.0006
502.858	0.0002
503.21	0.0004
503.562	0.0001
503.914	0.0011
504.266	0.0009
504.618	-0.0013
504.969	-0.002
505.321	-0.0003
505.673	0.0018
506.025	0.0001
506.376	-0.0018
506.728	-0.0047
507.079	-0.0043
507.431	-0.0055
507.782	-0.0025
508.134	-0.0023
508.485	-0.0036
508.836	-0.0042
509.188	-0.0038
509.539	0.0013
509.89	0.002
510.241	0.0021
510.592	0.0021
510.943	0.0032
511.294	0.0026
511.645	0.0012
511.996	-0.0013
512.347	-0.0026
512.698	-0.0032
513.049	-0.0032
513.399	0.0003
513.75	-0.0016
514.101	-0.0019
514.451	-0.0038
514.802	-0.0033
515.152	-0.0011
515.503	-0.0005
515.853	0.0009
516.203	0.0001
516.554	-0.0006
516.904	-0.0003
517.254	-0
517.604	0.0016
517.955	0.0016
518.305	0.0009
518.655	-0.004
519.005	-0.005
519.355	-0.0049
519.705	0.0008
520.055	0.002
520.404	0.0032
520.754	0.0006
521.104	0.001
521.454	0.0003
521.803	0.0002
522.153	-0.0001
522.502	-0.0041
522.852	-0.005
523.201	-0.006
523.551	-0.0028
523.9	-0.0032
524.249	-0.0014
524.599	-0.0019
524.948	0.0008
525.297	-0.001
525.646	0.0024
525.995	0.0003
526.344	0.0005
526.694	-0.0011
527.042	-0.001
527.391	-0.0003
527.74	-0.0026
528.089	-0.0008
528.438	0.0008
528.787	0.0034
529.135	0.0031
529.484	-0.0006
529.833	-0.0005
530.181	-0.0024
530.53	-0.002
530.878	-0.0035
531.227	-0.0009
531.575	-0.0021
531.923	-0.0009
532.271	-0.0015
532.62	-0
532.968	0.0022
533.316	0.0028
533.664	0.0036
534.012	0.0022
534.36	-0.001
534.708	-0.002
535.056	-0.0009
535.404	0.0012
535.752	0.0022
536.1	-0.0019
536.447	-0.005
536.795	-0.0053
537.143	-0.0016
537.49	0.0005
537.838	-0.0003
538.185	-0.004
538.533	-0.0051
538.88	-0.0049
539.228	-0.0043
539.575	-0.0038
539.922	-0.0025
540.269	-0.0039
540.617	-0.0025
540.964	-0.0057
541.311	-0.003
541.658	-0.0049
542.005	-0.0037
542.352	-0.0066
542.699	-0.0074
543.045	-0.0089
543.392	-0.0044
543.739	-0.0034
544.086	-0.0014
544.432	-0.0019
544.779	-0.0002
545.126	-0.0001
545.472	-0.0013
545.819	-0.0033
546.165	-0.0037
546.512	-0.0048
546.858	-0.0023
547.204	-0.0022
547.55	-0.0018
547.897	-0.0005
548.243	0.0002
548.589	0.0007
548.935	-0.0022
549.281	0.0002
549.627	-0.0015
549.973	0.0006
550.319	-0.0009
550.665	0.001
551.01	-0.0013
551.356	-0.0035
551.702	-0.0033
552.048	-0.0046
552.393	-0.0026
552.739	-0.0029
553.084	0.0025
553.43	0.0007
553.775	0.0013
554.12	0.0009
554.466	0.0037
554.811	0.0008
555.156	-0.0031
555.502	-0.0046
555.847	-0.0023
556.192	-0.0048
556.537	-0.0055
556.882	-0.0094
557.227	-0.0068
557.572	-0.0068
557.917	-0.0034
558.261	0.0006
558.606	-0.0026
558.951	-0.0032
559.295	-0.0053
559.64	-0.002
559.985	-0.0016
560.329	-0.0031
560.674	-0.0052
561.018	-0.0052
561.363	-0.0076
561.707	-0.0068
562.051	-0.0046
562.395	0.0011
562.74	0.0005
563.084	-0.003
563.428	-0.007
563.772	-0.0051
564.116	-0.0047
564.46	-0.0041
564.804	-0.0045
565.148	-0.0053
565.492	-0.0048
565.835	-0.0036
566.179	-0.0018
566.523	0.0002
566.866	-0.0015
567.21	-0.0026
567.554	-0.0079
567.897	-0.0042
568.24	-0.006
568.584	-0.0039
568.927	-0.0063
569.271	-0.0042
569.614	-0.0032
569.957	-0.0022
570.3	-0.0025
570.643	-0.0019
570.986	-0.0028
571.329	-0.0002
571.672	-0.0022
572.015	-0.0018
572.358	-0.0032
572.701	0.0002
573.044	-0.0014
573.387	-0.0029
573.729	-0.0029
574.072	-0.0012
574.414	-0.0011
574.757	-0.0026
575.099	-0.0052
575.442	-0.0074
575.784	-0.0053
576.127	-0.0024
576.469	-0.0007
576.811	-0.004
577.153	-0.004
577.496	-0.0029
577.838	0.0003
578.18	0.0008
578.522	0.0008
578.864	-0.0011
579.206	-0.0002
579.548	-0.0011
579.889	-0.0013
580.231	-0.0022
580.573	0.0019
580.915	0.0004
581.256	-0.0041
581.598	-0.0062
581.939	-0.0064
582.281	0.0008
582.622	0.0006
582.964	-0.0008
583.305	-0.0026
583.646	-0.0041
583.988	-0.0004
584.329	-0.0013
584.67	-0.0032
585.011	-0.0059
585.352	-0.008
585.693	-0.0075
586.034	-0.0076
586.375	-0.0082
586.716	-0.0055
587.057	-0.0048
587.398	-0.0046
587.738	-0.0035
588.079	-0.0049
588.42	-0.0045
588.76	-0.0061
589.101	-0.0043
589.441	-0.0038
589.782	-0.0038
590.122	-0.0011
590.463	0.0008
590.803	-0.0012
591.143	-0.003
591.483	-0.0057
591.823	-0.0049
592.164	-0.0049
592.504	-0.0031
592.844	-0.0033
593.184	-0.0044
593.523	-0.005
593.863	-0.0052
594.203	-0.0048
594.543	-0.001
594.883	-0.001
595.222	-0.0003
595.562	-0.0007
595.901	-0.0019
596.241	-0.0033
596.58	-0.0045
596.92	-0.0046
597.259	-0.006
597.599	-0.0063
597.938	-0.0025
598.277	0.0003
598.616	-0.0027
598.955	-0.0042
599.295	-0.0037
599.634	-0.0022
599.973	-0.0032
600.312	-0.0059
600.65	-0.006
600.989	-0.0052
601.328	-0.0024
601.667	0.0037
602.005	0.0023
602.344	0.0006
602.683	-0.0007
603.021	-0.0016
603.36	-0.004
603.698	-0.0082
604.037	-0.0079
604.375	-0.006
604.713	-0.0064
605.052	-0.0098
605.39	-0.0095
605.728	-0.0077
606.066	0.0006
606.404	0.0018
606.742	-0.0023
607.08	-0.0007
607.418	-0.0031
607.756	-0.0001
608.094	-0.0027
608.431	-0.0003
608.769	0.0012
609.107	-0.001
609.444	-0.0005
609.782	-0.0016
610.12	0.0001
610.457	-0.0014
610.794	-0.0034
611.132	-0.0059
611.469	-0.0071
611.806	-0.0084
612.144	-0.011
612.481	-0.0093
612.818	-0.0045
613.155	-0.0012
613.492	-0.001
613.829	-0.0025
614.166	-0.0024
614.503	-0.0026
614.84	-0.0065
615.176	-0.0047
615.513	-0.0028
615.85	0.0008
616.187	-0.0004
616.523	-0.0021
616.86	-0.0012
617.196	0.0008
617.533	0.0024
617.869	-0.0003
618.205	-0.0032
618.542	-0.0039
618.878	-0.0044
619.214	-0.0022
619.55	-0.0053
619.886	-0.004
620.222	-0.0086
620.558	-0.0085
620.894	-0.0095
621.23	-0.0081
621.566	-0.0051
621.902	-0.0046
622.238	-0.005
622.573	-0.0035
622.909	-0.0027
623.244	-0.0048
623.58	-0.0077
623.916	-0.0116
624.251	-0.0057
624.586	-0.0043
624.922	-0.0018
625.257	-0.0048
625.592	-0.0109
625.927	-0.0099
626.263	-0.0099
626.598	-0.0083
626.933	-0.0084
627.268	-0.0074
627.603	-0.003
627.938	-0.0055
628.272	-0.0039
628.607	-0.0026
628.942	-0.0044
629.277	-0.0067
629.611	-0.0102
629.946	-0.0082
630.281	-0.01
630.615	-0.01
630.949	-0.0082
631.284	-0.0027
631.618	0.0025
631.953	0.0001
632.287	-0.0031
632.621	-0.0055
632.955	-0.0039
633.289	-0.0025
633.623	-0.0057
633.957	-0.0063
634.291	-0.0081
634.625	-0.0071
634.959	-0.0066
635.293	-0.0039
635.627	-0.0022
635.96	-0.0003
636.294	-0.0016
636.627	-0.0001
636.961	0.0011
637.294	0.0028
637.628	0.0008
637.961	-0.0052
638.295	-0.0061
638.628	-0.0026
638.961	0.0019
639.294	0.0001
639.628	-0.0073
639.961	-0.0092
640.294	-0.0124
640.627	-0.012
640.96	-0.0118
641.293	-0.0117
641.625	-0.0069
641.958	-0.0094
642.291	-0.0074
642.624	-0.0104
642.956	-0.0118
643.289	-0.0097
643.621	-0.0079
643.954	-0.0081
644.286	-0.0077
644.619	-0.0107
644.951	-0.0073
645.283	-0.0072
645.616	-0.005
645.948	-0.0053
646.28	-0.0048
646.612	-0.0052
646.944	-0.003
647.276	-0.0092
647.608	-0.0128
647.94	-0.0154
648.272	-0.0112
648.603	-0.012
648.935	-0.0124
649.267	-0.0133
649.598	-0.0095
649.93	-0.0073
650.261	-0.0053
650.593	-0.0068
650.924	-0.0067
651.256	-0.0053
651.587	-0.0017
651.918	-0.0029
652.25	-0.0041
652.581	-0.0087
652.912	-0.0067
653.243	-0.006
653.574	-0.0046
653.905	-0.0086
654.236	-0.0094
654.567	-0.0037
654.897	-0.0031
655.228	-0.0021
655.559	-0.0035
655.89	-0.0011
656.22	-0.0027
656.551	-0.0072
656.881	-0.0104
657.212	-0.0092
657.542	-0.0064
657.872	-0.0077
658.203	-0.0099
658.533	0.0004
658.863	0.009
659.193	-0.0035
659.523	-0.0078
659.853	-0.0198
660.183	-0.0117
660.513	-0.0099
660.843	-0.0101
661.173	-0.0129
661.503	-0.0109
661.833	-0.0104
662.162	-0.0073
662.492	-0.0042
662.822	-0.0023
663.151	-0.0048
663.481	-0.0075
663.81	-0.0107
664.139	-0.0104
664.469	-0.0094
664.798	-0.0129
665.127	-0.0127
665.456	-0.0146
665.785	-0.0074
666.114	-0.0038
666.443	-0.0018
666.772	-0.0033
667.101	-0.0048
667.43	-0.0048
667.759	-0.0026
668.088	-0.008
668.416	-0.0088
668.745	-0.0112
669.074	-0.0104
669.402	-0.0123
669.731	-0.0123
670.059	-0.0044
670.388	-0.0087
670.716	-0.0092
671.044	-0.0111
671.372	-0.004
671.701	-0.0044
672.029	-0.0046
672.357	-0.008
672.685	-0.0095
673.013	-0.0124
673.341	-0.0114
673.669	-0.0085
673.996	-0.0075
674.324	-0.0004
674.652	-0.0017
674.98	-0.0015
675.307	-0.0091
675.635	-0.0092
675.962	-0.0067
676.29	-0.0052
676.617	-0.0098
676.945	-0.0101
677.272	-0.0102
677.599	-0.0075
677.926	-0.0063
678.253	-0.0064
678.581	-0.0086
678.908	-0.0138
679.235	-0.012
679.561	-0.0094
679.888	-0.0097
680.215	-0.0125
680.542	-0.0077
680.869	-0.009
681.195	-0.0113
681.522	-0.0132
681.849	-0.0152
682.175	-0.009
682.502	-0.0128
682.828	-0.0098
683.154	-0.0113
683.481	-0.0063
683.807	-0.0095
684.133	-0.0063
684.459	-0.0066
684.785	-0.0006
685.111	-0.005
685.437	-0.0066
685.763	-0.0072
686.089	-0.006
686.415	-0.0064
686.741	-0.0035
687.067	-0.005
687.392	-0.0069
687.718	-0.0099
688.043	-0.0076
688.369	-0.0063
688.694	-0.0061
689.02	-0.0076
689.345	-0.0066
689.67	-0.0093
689.996	-0.0052
690.321	-0.0044
690.646	-0.0047
690.971	-0.0084
691.296	-0.0121
691.621	-0.0098
691.946	-0.0084
692.271	-0.0064
692.596	-0.0052
692.921	-0.0095
693.245	-0.0118
693.57	-0.0128
693.895	-0.0096
694.219	-0.0073
694.544	-0.0076
694.868	-0.0059
695.193	-0.0044
695.517	-0.0027
695.841	-0.0028
696.166	-0.0034
696.49	-0.0048
696.814	-0.0057
697.138	-0.0058
697.462	-0.0086
697.786	-0.0082
698.11	-0.0062
698.434	-0.0031
698.758	-0.0099
699.081	-0.012
699.405	-0.0134
699.729	-0.0036
700.052	-0.0037
700.376	-0.0048
700.7	-0.0074
701.023	-0.0089
701.346	-0.0074
701.67	-0.0095
701.993	-0.0043
702.316	-0.0058
702.639	-0.0069
702.963	-0.0101
703.286	-0.0109
703.609	-0.011
703.932	-0.0127
704.255	-0.0076
704.578	-0.0049
704.9	-0.0052
705.223	-0.0083
705.546	-0.0052
705.868	-0.0027
706.191	-0.0066
706.514	-0.01
706.836	-0.0139
707.159	-0.0158
707.481	-0.0156
707.803	-0.0156
708.126	-0.0118
708.448	-0.0109
708.77	-0.0109
709.092	-0.0081
709.414	-0.0078
709.736	-0.0044
710.058	-0.0014
710.38	-0.0019
710.702	-0.0023
711.024	-0.0077
711.345	-0.0092
711.667	-0.0092
711.989	-0.0062
712.31	-0.0064
712.632	-0.0111
712.953	-0.0119
713.275	-0.0141
713.596	-0.0071
713.917	-0.0082
714.239	-0.005
714.56	-0.0085
714.881	-0.0113
715.202	-0.0151
715.523	-0.0155
715.844	-0.0094
716.165	-0.0071
716.486	-0.0044
716.807	-0.0059
717.128	-0.0051
717.448	-0.0042
717.769	-0.0014
718.09	-0.0016
718.41	-0.0053
718.731	-0.008
719.051	-0.0098
719.372	-0.0104
719.692	-0.0087
720.012	-0.0047
720.332	-0.0077
720.653	-0.0105
720.973	-0.0103
721.293	-0.006
721.613	-0.0072
721.933	-0.0092
722.253	-0.0075
722.573	-0.002
722.892	0.0017
723.212	-0.0007
723.532	-0.0039
723.851	-0.0081
724.171	-0.0109
724.491	-0.0122
724.81	-0.0105
725.129	-0.0068
725.449	-0.0067
725.768	-0.0063
726.087	-0.0032
726.407	-0.0049
726.726	-0.0042
727.045	-0.0028
727.364	-0.001
727.683	-0.0049
728.002	-0.0127
728.321	-0.0144
728.64	-0.0127
728.958	-0.011
729.277	-0.0066
729.596	-0.0045
729.914	-0.0017
730.233	-0.0075
730.551	-0.0107
730.87	-0.0128
731.188	-0.0118
731.507	-0.0124
731.825	-0.0147
732.143	-0.0137
732.461	-0.0127
732.779	-0.01
733.097	-0.011
733.415	-0.0101
733.733	-0.0099
734.051	-0.0119
734.369	-0.0135
734.687	-0.0129
735.005	-0.0094
735.322	-0.0076
735.64	-0.0092
735.957	-0.009
736.275	-0.0118
736.592	-0.0117
736.91	-0.0107
737.227	-0.0066
737.544	-0.0057
737.862	-0.0054
738.179	-0.0069
738.496	-0.0067
738.813	-0.0057
739.13	-0.0091
739.447	-0.0079
739.764	-0.0107
740.081	-0.006
740.398	-0.0118
740.714	-0.0103
741.031	-0.0121
741.348	-0.0064
741.664	-0.0049
741.981	0.0001
742.297	-0.0012
742.614	-0.0063
742.93	-0.0083
743.246	-0.0124
743.563	-0.0093
743.879	-0.0162
744.195	-0.0183
744.511	-0.0185
744.827	-0.0107
745.143	-0.0063
745.459	-0.0033
745.775	-0.0078
746.091	-0.0095
746.406	-0.0162
746.722	-0.0112
747.038	-0.0079
747.353	-0.0061
747.669	-0.0112
747.984	-0.0126
748.3	-0.0096
748.615	-0.0085
748.93	-0.0103
749.246	-0.0139
749.561	-0.0165
749.876	-0.0118
750.191	-0.0046
750.506	-0.0029
750.821	-0.0047
751.136	-0.0089
751.451	-0.0105
751.766	-0.008
752.08	-0.0041
752.395	-0.0017
752.71	-0.0078
753.024	-0.0148
753.339	-0.0146
753.653	-0.0114
753.968	-0.0042
754.282	-0.008
754.596	-0.0121
754.911	-0.0168
755.225	-0.0164
755.539	-0.0139
755.853	-0.0146
756.167	-0.0133
756.481	-0.0088
756.795	-0.0049
757.109	-0.0069
757.423	-0.0121
757.736	-0.0166
758.05	-0.0159
758.364	-0.0125
758.677	-0.0072
758.991	-0.005
759.304	-0.0027
759.618	-0.0037
759.931	-0.0053
760.244	-0.0064
760.558	-0.0051
760.871	-0.004
761.184	-0.0085
761.497	-0.0153
761.81	-0.0181
762.123	-0.0151
762.436	-0.0161
762.749	-0.0128
763.062	-0.0084
763.374	-0.0044
763.687	-0.0034
764	-0.0049
764.312	-0.0034
764.625	-0.0038
764.937	-0.0065
765.25	-0.0074
765.562	-0.0065
765.874	0.0012
766.186	-0.002
766.499	-0.0055
766.811	-0.0151
767.123	-0.0119
767.435	-0.0095
767.747	-0.0018
768.059	0.0005
768.37	0.0013
768.682	-0.0055
768.994	-0.0125
769.306	-0.0185
769.617	-0.0185
769.929	-0.0131
770.24	-0.0045
770.552	-0.0011
770.863	-0.0063
771.174	-0.0091
771.486	-0.0099
771.797	-0.0084
772.108	-0.0108
772.419	-0.0107
772.73	-0.0089
773.041	-0.0079
773.352	-0.0082
773.663	-0.0062
773.974	-0.0049
774.285	-0.0079
774.595	-0.0126
774.906	-0.0132
775.217	-0.0148
775.527	-0.012
775.838	-0.0108
776.148	-0.0063
776.458	-0.0081
776.769	-0.0128
777.079	-0.0114
777.389	-0.0126
777.699	-0.0113
778.009	-0.0139
778.319	-0.0107
778.629	-0.0087
778.939	-0.0098
779.249	-0.0079
779.559	-0.0146
779.869	-0.0161
780.178	-0.0213
780.488	-0.0198
780.798	-0.0186
781.107	-0.0161
781.417	-0.0085
781.726	-0.0081
782.035	-0.008
782.345	-0.013
782.654	-0.0101
782.963	-0.0146
783.272	-0.0087
783.581	-0.0026
783.89	0.0057
784.199	0.0042
784.508	-0.0024
784.817	-0.0072
785.126	-0.0072
785.434	-0.0077
785.743	-0.0048
786.052	-0.0102
786.36	-0.0126
786.669	-0.0142
786.977	-0.0155
787.285	-0.0154
787.594	-0.0166
787.902	-0.0107
788.21	-0.0073
788.518	-0.0103
788.826	-0.0167
789.135	-0.023
789.442	-0.0233
789.75	-0.018
790.058	-0.0132
790.366	-0.0121
790.674	-0.0129
790.981	-0.007
791.289	-0.003
791.597	-0.0018
791.904	-0.0043
792.212	-0.0061
792.519	-0.0074
792.826	-0.0095
793.134	-0.0057
793.441	-0.01
793.748	-0.0064
794.055	-0.0097
794.362	-0.0067
794.669	-0.0111
794.976	-0.0105
795.283	-0.0082
795.59	-0.0037
795.897	-0.0045
796.203	-0.0059
796.51	-0.0085
796.817	-0.0052
797.123	-0.007
797.43	-0.0074
797.736	-0.0137
798.042	-0.0171
798.349	-0.0199
798.655	-0.0117
798.961	-0.0064
799.267	-0.0009
799.573	-0.004
799.879	-0.0018
800.185	-0.0045
800.491	-0.0058
800.797	-0.0082
801.103	-0.0133
801.408	-0.0104
801.714	-0.0121
802.02	-0.0069
802.325	-0.0098
802.631	-0.0131
802.936	-0.0095
803.242	-0.0097
803.547	-0.0038
803.852	-0.009
804.157	-0.0052
804.462	-0.0066
804.768	-0.001
805.073	-0.0072
805.378	-0.0112
805.682	-0.0116
805.987	-0.0085
806.292	-0.006
806.597	-0.0117
806.902	-0.0071
807.206	-0.0092
807.511	-0.0079
807.815	-0.0091
808.12	-0.0126
808.424	-0.0074
808.728	-0.0164
809.033	-0.0015
809.337	-0.0053
809.641	-0.0014
809.945	-0.0042
810.249	-0.0063
810.553	-0.0105
810.857	-0.0249
811.161	-0.0216
811.465	-0.0186
811.768	-0.0037
812.072	-0.0077
812.376	-0.0052
812.679	-0.007
812.983	-0.0008
813.286	-0.004
813.59	-0.0063
813.893	-0.0056
814.196	-0.0045
814.499	-0.0052
814.803	-0.0166
815.106	-0.0044
815.409	-0.0002
815.712	0.0153
816.015	0.0018
816.318	-0.0004
816.62	-0.0003
816.923	0.0013
817.226	-0.0012
817.528	-0.011
817.831	-0.0103
818.133	-0.0125
818.436	-0.0145
818.738	-0.0143
819.041	-0.0164
819.343	-0.0114
819.645	-0.0105
819.947	-0.0053
820.249	-0.0058
820.551	-0.0045
820.853	-0.0091
821.155	-0.0053
821.457	-0.0129
821.759	-0.0114
822.061	-0.0067
822.362	-0.0011
822.664	0.0112
822.966	0.0011
823.267	-0.0024
823.569	-0.0095
823.87	-0.0021
824.171	0.0023
824.473	-0.0043
824.774	-0.0072
825.075	-0.0102
825.376	0.002
825.677	0.0001
825.978	-0.0085
826.279	-0.0168
826.58	-0.0227
826.881	-0.0113
827.181	-0.0091
827.482	-0.0044
827.783	-0.0135
828.083	-0.0146
828.384	-0.0145
828.684	-0.0075
828.985	-0.0078
829.285	-0.004
829.585	-0.0066
829.885	-0.0062
830.185	-0.0043
830.486	-0.0066
830.786	-0.0084
831.086	-0.0175
831.385	-0.0094
831.685	-0.003
831.985	0.0124
832.285	0.0073
832.585	0.0086
832.884	0.0019
833.184	-0.0025
833.483	-0
833.783	0.0011
834.082	0.0028
834.381	-0.0064
834.681	-0.0245
834.98	-0.0279
835.279	-0.0175
835.578	-0.0073
835.877	-0.01
836.176	-0.0203
836.475	-0.0107
836.774	-0.0032
837.072	-0.0028
837.371	-0.0095
837.67	-0.0035
837.968	-0.0005
838.267	-0.0077
838.565	-0.0095
838.864	-0.0162
839.162	-0.0162
839.46	-0.0156
839.759	-0.0139
840.057	-0.0106
840.355	-0.013
840.653	-0.0038
840.951	-0.0097
841.249	-0.0165
841.547	-0.0204
841.845	-0.0169
842.142	-0.0109
842.44	-0.0105
842.738	-0.0042
843.035	-0.022
843.333	-0.0286
843.63	-0.0291
843.928	0.0044
844.225	0.0091
844.522	0.0078
844.82	-0.0112
845.117	-0.0122
845.414	-0.0192
845.711	-0.0251
846.008	-0.0278
846.305	-0.0202
846.602	-0.0244
846.898	-0.0141
847.195	-0.0291
847.492	-0.0165
847.788	-0.0325
848.085	-0.0246
848.382	-0.0176
848.678	-0.0073
848.974	0.0095
849.271	-0.0034
849.567	0.0071
849.863	0.0054
850.159	0.006
850.455	-0.0005
850.751	-0.0086
851.047	-0.0042
851.343	-0.0159
851.639	-0.0214
851.935	-0.0198
852.23	-0.0177
852.526	-0.0043
852.822	-0.0051
853.117	-0.0107
853.413	-0.0274
853.708	-0.0342
854.003	-0.0339
854.299	-0.0191
854.594	-0.0043
854.889	0.0047
855.184	-0.0174
855.479	-0.0212
855.774	-0.0188
856.069	0.004
856.364	0.0036
856.659	0.0003
856.954	-0.0292
857.248	-0.0451
857.543	-0.051
857.837	-0.0259
858.132	-0.017
858.426	-0.0118
858.721	-0.0104
859.015	-0.0072
859.309	-0.0211
859.604	-0.0213
859.898	0.0004
860.192	-0.0052
860.486	0.003
860.78	-0.0161
861.074	0.0016
861.367	-0.0126
861.661	-0.0088
861.955	-0.0022
862.248	-0.0008
862.542	-0.012
862.836	-0.0207
863.129	-0.0252
863.422	-0.0466
863.716	-0.016
864.009	-0.0172
864.302	0.0043
864.595	-0.0283
864.889	-0.0218
865.182	-0.0013
865.475	0.0229
865.767	0.0139
866.06	-0.008
866.353	-0.0254
866.646	-0.0303
866.938	-0.0475
867.231	-0.0362
867.524	-0.0153
867.816	0.0103
868.109	-0.0105
868.401	-0.0244
868.693	-0.0295
868.985	-0.0259
869.278	-0.0257
869.57	-0.0286
869.862	-0.0276
870.154	-0.0375
870.446	-0.0396
870.738	-0.0355
871.029	-0.0047
871.321	-0.0236
871.613	-0.007
871.904	-0.0246
872.196	-0.0093
872.487	-0.0358
872.779	-0.0405
873.07	-0.013
873.362	-0.0065
873.653	-0.0104
873.944	-0.0373
874.235	-0.0086
874.526	0.0396
874.817	0.0498
875.108	0.0638
875.399	0.0136
875.69	-0.0116
875.981	-0.0471
876.271	-0.021
876.562	-0.0081
876.853	0.0128
877.143	-0.0218
877.434	-0.0498
877.724	-0.0745
878.014	-0.0435
878.305	0.011
878.595	0.0456
878.885	0.0295
879.175	0.0166
879.465	-0.0053
879.755	0.0155
880.045	-0.0147
880.335	-0.0392
880.624	-0.0913
880.914	-0.0913
