Data from 32SS03FU_072917_1b_Absorbance_17-04-59-357.txt Node
Date: Wed Aug 02 17:04:59 MDT 2017
User: Tank Lab
Spectrometer: FLMS01220
Trigger mode: 0
Integration Time (sec): 1.000000E-1
Scans to average: 10
Electric dark correction enabled: true
Nonlinearity correction enabled: false
Boxcar width: 1
XAxis mode: Wavelengths
Number of Pixels in Spectrum: 2048
>>>>>Begin Spectral Data<<<<<
179.47	0.1646
179.856	0.1646
180.241	-0
180.626	-0
181.011	-0
181.396	-0
181.781	-0.8433
182.166	-0
182.551	-0
182.936	-2.0109
183.321	-0
183.706	-0.0621
184.091	0.24
184.476	-1.2515
184.86	-0.1608
185.245	-0.3875
185.63	-0
186.015	-0
186.399	-0.2975
186.784	-0
187.169	-0
187.553	-0.6768
187.938	0.0353
188.322	-0.0265
188.707	-0.0029
189.091	0.0017
189.475	0.0043
189.86	0.0206
190.244	0.0448
190.629	0.0805
191.013	0.1386
191.397	0.1468
191.781	0.1921
192.165	0.2364
192.55	0.2879
192.934	0.3127
193.318	0.3257
193.702	0.3473
194.086	0.3576
194.47	0.3412
194.854	0.3287
195.238	0.3217
195.622	0.3191
196.006	0.3235
196.389	0.3107
196.773	0.299
197.157	0.2796
197.541	0.2663
197.924	0.2511
198.308	0.2388
198.692	0.2313
199.075	0.2223
199.459	0.2099
199.843	0.1926
200.226	0.1878
200.61	0.1809
200.993	0.173
201.376	0.1629
201.76	0.1526
202.143	0.1526
202.527	0.1474
202.91	0.1476
203.293	0.1387
203.676	0.1386
204.059	0.1315
204.443	0.1309
204.826	0.1234
205.209	0.1216
205.592	0.1179
205.975	0.1133
206.358	0.1107
206.741	0.1114
207.124	0.1149
207.507	0.1156
207.89	0.112
208.273	0.1083
208.655	0.1078
209.038	0.106
209.421	0.1076
209.804	0.1036
210.186	0.1048
210.569	0.0989
210.951	0.099
211.334	0.0952
211.717	0.0979
212.099	0.0947
212.482	0.0949
212.864	0.0934
213.246	0.0926
213.629	0.0914
214.011	0.0885
214.393	0.0867
214.776	0.0833
215.158	0.0838
215.54	0.0836
215.922	0.0833
216.305	0.0811
216.687	0.0771
217.069	0.0759
217.451	0.0752
217.833	0.0759
218.215	0.0747
218.597	0.0737
218.979	0.0744
219.361	0.0734
219.742	0.0697
220.124	0.0648
220.506	0.0609
220.888	0.0596
221.27	0.0594
221.651	0.0593
222.033	0.0599
222.415	0.0585
222.796	0.0554
223.178	0.0514
223.559	0.0504
223.941	0.0508
224.322	0.0506
224.704	0.048
225.085	0.0451
225.466	0.0429
225.848	0.0424
226.229	0.0422
226.61	0.0415
226.992	0.0389
227.373	0.0371
227.754	0.035
228.135	0.0339
228.516	0.0338
228.897	0.035
229.278	0.034
229.659	0.0325
230.04	0.031
230.421	0.0312
230.802	0.0317
231.183	0.0301
231.564	0.0297
231.944	0.0267
232.325	0.0255
232.706	0.0244
233.087	0.0246
233.467	0.024
233.848	0.024
234.229	0.0225
234.609	0.0217
234.99	0.0204
235.37	0.021
235.751	0.0207
236.131	0.0196
236.511	0.0196
236.892	0.02
237.272	0.0193
237.652	0.0184
238.033	0.0182
238.413	0.0185
238.793	0.0193
239.173	0.019
239.553	0.0187
239.933	0.0175
240.313	0.0176
240.694	0.0182
241.074	0.0177
241.453	0.0169
241.833	0.0182
242.213	0.0179
242.593	0.0161
242.973	0.0135
243.353	0.0129
243.732	0.0148
244.112	0.0151
244.492	0.0161
244.872	0.0148
245.251	0.0156
245.631	0.0146
246.01	0.0159
246.39	0.0155
246.769	0.0162
247.149	0.0156
247.528	0.0152
247.908	0.0152
248.287	0.0152
248.666	0.0143
249.045	0.0139
249.425	0.0127
249.804	0.0141
250.183	0.0142
250.562	0.016
250.941	0.0156
251.32	0.0161
251.699	0.014
252.078	0.0136
252.457	0.0125
252.836	0.0144
253.215	0.0124
253.594	0.0126
253.973	0.0103
254.352	0.0107
254.731	0.0104
255.109	0.0114
255.488	0.0112
255.867	0.0104
256.245	0.0104
256.624	0.0112
257.002	0.0113
257.381	0.0119
257.759	0.0134
258.138	0.0145
258.516	0.0137
258.895	0.0117
259.273	0.0106
259.651	0.0116
260.03	0.0118
260.408	0.0121
260.786	0.0119
261.164	0.0112
261.542	0.0118
261.921	0.0106
262.299	0.0114
262.677	0.0113
263.055	0.0121
263.433	0.0134
263.811	0.0117
264.188	0.0111
264.566	0.0098
264.944	0.0099
265.322	0.011
265.7	0.0111
266.077	0.0114
266.455	0.0101
266.833	0.0098
267.21	0.0101
267.588	0.0099
267.966	0.0093
268.343	0.0093
268.721	0.01
269.098	0.0107
269.475	0.0092
269.853	0.0103
270.23	0.0094
270.607	0.0114
270.985	0.0097
271.362	0.0113
271.739	0.01
272.116	0.0098
272.494	0.0091
272.871	0.0098
273.248	0.0109
273.625	0.0105
274.002	0.0102
274.379	0.0099
274.756	0.0101
275.132	0.0096
275.509	0.0081
275.886	0.0089
276.263	0.0105
276.64	0.0112
277.016	0.0096
277.393	0.0091
277.77	0.0101
278.146	0.0102
278.523	0.0105
278.899	0.0104
279.276	0.0112
279.652	0.0095
280.029	0.0092
280.405	0.0089
280.782	0.0093
281.158	0.009
281.534	0.0096
281.91	0.0104
282.287	0.0097
282.663	0.0103
283.039	0.0102
283.415	0.0111
283.791	0.0108
284.167	0.0098
284.543	0.01
284.919	0.0084
285.295	0.0088
285.671	0.0081
286.047	0.0078
286.423	0.0076
286.799	0.008
287.174	0.0093
287.55	0.0087
287.926	0.0077
288.301	0.0072
288.677	0.0081
289.053	0.0083
289.428	0.0077
289.804	0.0071
290.179	0.0062
290.555	0.0064
290.93	0.0071
291.305	0.0072
291.681	0.0075
292.056	0.0059
292.431	0.0062
292.806	0.0065
293.182	0.0071
293.557	0.0082
293.932	0.0085
294.307	0.0093
294.682	0.0078
295.057	0.006
295.432	0.0062
295.807	0.0067
296.182	0.0088
296.557	0.0073
296.932	0.0068
297.306	0.0057
297.681	0.006
298.056	0.0068
298.43	0.0076
298.805	0.0092
299.18	0.0091
299.554	0.0087
299.929	0.0069
300.303	0.0065
300.678	0.0055
301.052	0.008
301.427	0.0075
301.801	0.0087
302.175	0.0062
302.55	0.0061
302.924	0.0056
303.298	0.0064
303.672	0.007
304.046	0.0066
304.421	0.0059
304.795	0.0074
305.169	0.0075
305.543	0.0104
305.917	0.0095
306.291	0.0097
306.664	0.008
307.038	0.0077
307.412	0.0071
307.786	0.0061
308.16	0.0064
308.533	0.0062
308.907	0.0063
309.281	0.0049
309.654	0.0057
310.028	0.0049
310.401	0.0058
310.775	0.0054
311.148	0.0063
311.522	0.0059
311.895	0.006
312.268	0.0048
312.642	0.0045
313.015	0.0038
313.388	0.0066
313.761	0.0053
314.135	0.0064
314.508	0.0053
314.881	0.0067
315.254	0.0064
315.627	0.0061
316	0.0056
316.373	0.0063
316.746	0.0054
317.118	0.0054
317.491	0.0043
317.864	0.0059
318.237	0.0055
318.61	0.0051
318.982	0.0047
319.355	0.0062
319.727	0.0074
320.1	0.0061
320.473	0.0054
320.845	0.0041
321.218	0.005
321.59	0.0051
321.962	0.0043
322.335	0.0031
322.707	0.0029
323.079	0.0048
323.452	0.0055
323.824	0.0055
324.196	0.0039
324.568	0.0042
324.94	0.0032
325.312	0.0045
325.684	0.0034
326.056	0.0034
326.428	0.0019
326.8	0.003
327.172	0.0037
327.544	0.0032
327.915	0.002
328.287	0.0028
328.659	0.002
329.031	0.0022
329.402	0.0013
329.774	0.0019
330.145	0.0012
330.517	0.0007
330.888	0.0019
331.26	0.0034
331.631	0.0029
332.003	0.0039
332.374	0.0037
332.745	0.0039
333.117	0.0012
333.488	0.0005
333.859	0.0009
334.23	0.0014
334.601	0.0021
334.972	0.0018
335.343	0.0023
335.714	0.0018
336.085	0.0014
336.456	0.0012
336.827	0.0008
337.198	0.0027
337.569	0.0036
337.94	0.0027
338.31	0.0012
338.681	0.0015
339.052	0.0027
339.422	0.0045
339.793	0.0046
340.164	0.0046
340.534	0.0029
340.905	0.0009
341.275	0.0016
341.645	0.0034
342.016	0.0034
342.386	0.0036
342.756	0.0023
343.127	0.0032
343.497	0.0043
343.867	0.0029
344.237	0.0022
344.607	0.0001
344.977	0.0023
345.347	0.0018
345.717	0.0016
346.087	-0.0012
346.457	0.0003
346.827	0.0009
347.197	0.0018
347.567	0.0016
347.936	-0
348.306	-0.0005
348.676	-0.0013
349.046	-0.0011
349.415	-0.0005
349.785	-0.0001
350.154	0.0005
350.524	0.0015
350.893	-0.0001
351.263	0.0015
351.632	0.0018
352.001	0.0053
352.371	0.0024
352.74	0.002
353.109	0.0004
353.478	0.0021
353.847	0.003
354.217	0.0019
354.586	0.0018
354.955	0.0008
355.324	0.0013
355.693	0.0006
356.062	0.0008
356.43	0.0001
356.799	0.0016
357.168	0.001
357.537	0.0016
357.906	0.001
358.274	0.002
358.643	0.0028
359.011	0.0024
359.38	0.0027
359.749	0.0024
360.117	0.001
360.486	0.002
360.854	0.0037
361.222	0.0049
361.591	0.0038
361.959	0.0013
362.327	0.0031
362.695	0.0034
363.064	0.0019
363.432	0.0011
363.8	0.0006
364.168	0.0029
364.536	0.0019
364.904	0.0027
365.272	0.0014
365.64	0.0016
366.008	-0.0015
366.376	-0
366.743	-0.0023
367.111	-0.0015
367.479	-0.002
367.847	0.0007
368.214	0.0019
368.582	0.001
368.949	0.0004
369.317	0.0014
369.684	0.0035
370.052	0.004
370.419	0.0034
370.787	0.0021
371.154	0.0015
371.521	0.001
371.889	-0.0001
372.256	-0.0018
372.623	-0.0025
372.99	-0.0023
373.357	-0.002
373.724	-0.0018
374.091	-0.0007
374.458	0.0001
374.825	-0.0008
375.192	-0.0008
375.559	-0.0005
375.926	-0.0011
376.293	-0.0025
376.659	-0.0041
377.026	-0.002
377.393	-0.0012
377.759	0.0014
378.126	-0
378.492	0.0002
378.859	-0.0026
379.225	-0.0011
379.592	-0.0012
379.958	0.0016
380.325	0.0003
380.691	0.0011
381.057	-0.0014
381.423	-0.0022
381.79	-0.0021
382.156	-0.0032
382.522	-0.0021
382.888	-0.0028
383.254	-0.001
383.62	-0.0018
383.986	-0.0021
384.352	-0.0021
384.718	-0.002
385.084	-0.0036
385.449	-0.0035
385.815	-0.003
386.181	-0.0011
386.547	-0.0006
386.912	-0.0015
387.278	-0.0001
387.643	0.0029
388.009	0.0048
388.374	0.0015
388.74	-0.0001
389.105	-0.0015
389.471	0.0026
389.836	0.0021
390.201	0.0045
390.566	0.0036
390.932	0.0034
391.297	0.0003
391.662	-0.0019
392.027	-0.0013
392.392	-0.0013
392.757	-0.001
393.122	-0.0032
393.487	-0.0005
393.852	-0.0001
394.217	0.0006
394.582	-0.0006
394.946	0.0013
395.311	0.0015
395.676	0.0027
396.04	-0.0015
396.405	-0.0027
396.77	-0.0051
397.134	-0.0035
397.499	-0.0013
397.863	-0.0003
398.227	-0.002
398.592	-0.0027
398.956	-0.0033
399.32	-0.0009
399.685	-0.0025
400.049	-0.0017
400.413	-0.0008
400.777	0.0006
401.141	0.0023
401.505	0.0011
401.869	-0.0009
402.233	-0.0035
402.597	-0.0036
402.961	-0.0015
403.325	-0.0008
403.689	-0.0002
404.053	0.0011
404.416	0.0001
404.78	-0.0004
405.144	0.0003
405.507	-0.0003
405.871	-0.001
406.234	-0.0014
406.598	0.0014
406.961	0.0018
407.325	-0.001
407.688	-0.0005
408.051	-0.0006
408.415	-0.0001
408.778	-0.0022
409.141	-0.0006
409.504	-0.0017
409.867	-0.0009
410.23	-0.0028
410.593	-0.0015
410.956	-0.004
411.319	-0.0064
411.682	-0.0069
412.045	-0.0066
412.408	-0.0043
412.771	-0.0031
413.134	-0.0016
413.496	-0.003
413.859	-0.0039
414.222	-0.0037
414.584	-0.0017
414.947	-0.0017
415.309	-0.0014
415.672	-0.0036
416.034	-0.0044
416.396	-0.0042
416.759	-0.0009
417.121	-0.0009
417.483	-0.0016
417.846	-0.0056
418.208	-0.0059
418.57	-0.0066
418.932	-0.0027
419.294	-0.0026
419.656	-0.0009
420.018	-0.003
420.38	-0.0015
420.742	-0.0028
421.104	-0.0001
421.466	0.0012
421.827	0.0032
422.189	0.0017
422.551	0.0009
422.912	-0.0008
423.274	-0.0011
423.636	-0.0015
423.997	-0
424.359	-0.0002
424.72	-0.0013
425.081	-0.0013
425.443	-0.0023
425.804	-0.0002
426.165	-0.0015
426.527	0.0003
426.888	0.0013
427.249	0.0033
427.61	0.0034
427.971	0.0016
428.332	0
428.693	-0.0005
429.054	-0.0017
429.415	-0.0014
429.776	0.0005
430.137	0.0007
430.498	-0.0003
430.858	-0.0038
431.219	-0.003
431.58	-0.0035
431.94	-0.0029
432.301	-0.0012
432.661	-0.002
433.022	-0.0017
433.382	-0.0039
433.743	-0.0018
434.103	-0.0023
434.463	-0.0031
434.824	-0.0034
435.184	-0.0034
435.544	-0.0041
435.904	-0.0044
436.264	-0.0045
436.624	-0.0003
436.985	-0.0026
437.345	-0.0018
437.704	-0.0055
438.064	-0.0046
438.424	-0.0044
438.784	-0.002
439.144	-0.0011
439.504	0.0001
439.863	-0.0019
440.223	-0.002
440.583	-0.0015
440.942	0.0003
441.302	0.0027
441.661	0.0026
442.021	0.0011
442.38	-0.0008
442.739	-0.002
443.099	0
443.458	-0.0008
443.817	-0.0004
444.176	-0.0007
444.536	0.0006
444.895	0.0002
445.254	0.0002
445.613	0.0007
445.972	0.001
446.331	-0.0007
446.69	-0.0011
447.049	-0.003
447.407	-0.0013
447.766	-0.0036
448.125	-0.0034
448.484	-0.0036
448.842	0.0009
449.201	0.0016
449.559	0.0012
449.918	-0.0012
450.276	-0.0023
450.635	-0.0019
450.993	-0.0018
451.352	-0.002
451.71	-0.0013
452.068	-0.0017
452.426	0.0009
452.785	0.0013
453.143	-0.0012
453.501	-0.0017
453.859	-0.0052
454.217	-0.0013
454.575	-0.0031
454.933	-0.0027
455.291	-0.0021
455.649	-0.0005
456.006	0.0015
456.364	-0.0012
456.722	-0.0015
457.079	-0.0028
457.437	-0.0011
457.795	-0.0007
458.152	0.0014
458.51	-0.0006
458.867	-0.0029
459.225	-0.0026
459.582	-0.0026
459.939	-0.003
460.297	-0.0053
460.654	-0.0059
461.011	-0.0055
461.368	-0.0063
461.725	-0.0035
462.082	-0.002
462.44	0.0004
462.797	-0.0023
463.153	-0.0019
463.51	-0.0025
463.867	0.0003
464.224	-0.0012
464.581	-0.0014
464.938	-0.0038
465.294	-0.0044
465.651	-0.0019
466.008	0.0012
466.364	0.0045
466.721	0.0049
467.077	0.0023
467.434	0.0006
467.79	-0.0023
468.146	-0.0004
468.503	-0
468.859	-0.0015
469.215	-0.0055
469.571	-0.0059
469.927	-0.0034
470.284	-0.002
470.64	-0.0027
470.996	-0.0026
471.352	0.0007
471.707	-0.0004
472.063	-0.0044
472.419	-0.0025
472.775	-0.0016
473.131	-0
473.486	-0.005
473.842	-0.0075
474.198	-0.0054
474.553	-0.0055
474.909	-0.0021
475.264	-0.0012
475.62	-0.0018
475.975	-0.0022
476.331	-0.0034
476.686	-0.0021
477.041	-0.0004
477.396	-0.0011
477.752	0.0017
478.107	0.0022
478.462	0.0038
478.817	0.0007
479.172	-0.0026
479.527	-0.0038
479.882	-0.0035
480.237	-0.0015
480.591	-0.0017
480.946	0.0001
481.301	-0.0008
481.656	-0
482.01	0.0008
482.365	0.0019
482.72	0.003
483.074	0.0017
483.429	-0
483.783	-0.0023
484.137	-0.0046
484.492	-0.0045
484.846	-0.0034
485.2	-0.0033
485.555	-0.0035
485.909	-0.0029
486.263	-0.003
486.617	-0.0026
486.971	-0.0038
487.325	-0.001
487.679	-0
488.033	-0.0017
488.387	-0.0014
488.741	-0.0015
489.094	-0.0019
489.448	-0.0036
489.802	-0.0047
490.156	-0.0036
490.509	-0.0052
490.863	-0.0047
491.216	-0.0024
491.57	-0.0005
491.923	0.0002
492.277	-0.0003
492.63	-0.0014
492.983	-0.0034
493.337	-0.0037
493.69	-0.0006
494.043	0.0009
494.396	0.0007
494.749	-0.0015
495.102	-0.0022
495.455	-0.0031
495.808	-0.0056
496.161	-0.0016
496.514	-0.0007
496.867	0.0014
497.22	-0.0022
497.572	-0.0043
497.925	-0.0032
498.278	-0.0024
498.63	-0.0023
498.983	0.0001
499.335	0.0005
499.688	0.0018
500.04	-0.0004
500.393	-0.0014
500.745	-0.0031
501.097	-0.0017
501.449	-0.0034
501.802	-0.0026
502.154	-0.0047
502.506	-0.0033
502.858	-0.004
503.21	-0.0037
503.562	-0.0026
503.914	0.0013
504.266	0.0012
504.618	-0.0022
504.969	-0.0021
505.321	-0.0015
505.673	-0.0005
506.025	-0.0045
506.376	-0.0071
506.728	-0.008
507.079	-0.0066
507.431	-0.0054
507.782	-0.003
508.134	-0.0027
508.485	-0.0037
508.836	-0.0034
509.188	-0.0029
509.539	-0.0004
509.89	-0.0023
510.241	-0.0049
510.592	-0.0045
510.943	-0.0031
511.294	-0.0021
511.645	-0.001
511.996	-0.003
512.347	-0.0023
512.698	-0.0057
513.049	-0.0062
513.399	-0.0052
513.75	-0.0059
514.101	-0.0032
514.451	-0.0038
514.802	-0.0027
515.152	-0.002
515.503	-0.0005
515.853	0.0003
516.203	-0
516.554	-0.0004
516.904	0.0004
517.254	-0.0006
517.604	-0.0014
517.955	-0.0031
518.305	-0.002
518.655	-0.0051
519.005	-0.0054
519.355	-0.0039
519.705	-0.0003
520.055	-0.0019
520.404	-0.0046
520.754	-0.0061
521.104	-0.003
521.454	-0.0048
521.803	-0.0042
522.153	-0.0047
522.502	-0.0047
522.852	-0.0069
523.201	-0.0088
523.551	-0.0054
523.9	-0.0054
524.249	-0.0018
524.599	-0.0023
524.948	-0.0018
525.297	-0.0048
525.646	-0.0055
525.995	-0.006
526.344	-0.0044
526.694	-0.0049
527.042	-0.0028
527.391	-0.0032
527.74	-0.0051
528.089	-0.0049
528.438	-0.0034
528.787	-0.0007
529.135	-0.0003
529.484	-0.004
529.833	-0.0037
530.181	-0.0055
530.53	-0.0045
530.878	-0.0031
531.227	-0.0036
531.575	-0.0034
531.923	-0.0066
532.271	-0.0055
532.62	-0.0074
532.968	-0.0039
533.316	-0.0018
533.664	0.0018
534.012	-0.0001
534.36	-0.0028
534.708	-0.0029
535.056	-0.0051
535.404	-0.0049
535.752	-0.0052
536.1	-0.0055
536.447	-0.0047
536.795	-0.004
537.143	-0.0014
537.49	-0.0016
537.838	-0.0036
538.185	-0.0062
538.533	-0.0073
538.88	-0.0066
539.228	-0.0054
539.575	-0.0049
539.922	-0.0042
540.269	-0.0028
540.617	-0.003
540.964	-0.0072
541.311	-0.0079
541.658	-0.0085
542.005	-0.0059
542.352	-0.0078
542.699	-0.0077
543.045	-0.0083
543.392	-0.0046
543.739	-0.0055
544.086	-0.0042
544.432	-0.0069
544.779	-0.0048
545.126	-0.0037
545.472	-0.0026
545.819	-0.0029
546.165	-0.0022
546.512	-0.0022
546.858	-0.0013
547.204	-0.0026
547.55	-0.0008
547.897	-0.0017
548.243	-0.004
548.589	-0.0063
548.935	-0.0072
549.281	-0.0032
549.627	-0.0029
549.973	-0.003
550.319	-0.0055
550.665	-0.0052
551.01	-0.0051
551.356	-0.0046
551.702	-0.0037
552.048	-0.0052
552.393	-0.0048
552.739	-0.0068
553.084	-0.0012
553.43	-0.0029
553.775	-0.003
554.12	-0.0053
554.466	-0.0057
554.811	-0.0038
555.156	-0.0062
555.502	-0.0056
555.847	-0.0055
556.192	-0.0047
556.537	-0.005
556.882	-0.0068
557.227	-0.0063
557.572	-0.0051
557.917	-0.0027
558.261	-0.0014
558.606	-0.004
558.951	-0.0057
559.295	-0.0075
559.64	-0.0063
559.985	-0.0081
560.329	-0.0104
560.674	-0.0114
561.018	-0.0079
561.363	-0.0065
561.707	-0.0077
562.051	-0.008
562.395	-0.0038
562.74	-0.0019
563.084	-0.0027
563.428	-0.0062
563.772	-0.0043
564.116	-0.0046
564.46	-0.0021
564.804	-0.003
565.148	-0.0052
565.492	-0.0065
565.835	-0.0059
566.179	-0.0042
566.523	-0.0062
566.866	-0.0073
567.21	-0.0082
567.554	-0.0091
567.897	-0.0072
568.24	-0.0072
568.584	-0.0059
568.927	-0.0063
569.271	-0.0056
569.614	-0.002
569.957	-0.0038
570.3	-0.0008
570.643	-0.0021
570.986	-0.0014
571.329	-0.0008
571.672	0.0001
572.015	-0.0018
572.358	-0.0019
572.701	-0.003
573.044	-0.0017
573.387	-0.0056
573.729	-0.0048
574.072	-0.0051
574.414	-0.0056
574.757	-0.0053
575.099	-0.0062
575.442	-0.0076
575.784	-0.0064
576.127	-0.004
576.469	-0.003
576.811	-0.0064
577.153	-0.0066
577.496	-0.0052
577.838	-0.0021
578.18	-0.0048
578.522	-0.0058
578.864	-0.0101
579.206	-0.0058
579.548	-0.0027
579.889	-0.0014
580.231	-0.0017
580.573	-0.0008
580.915	-0.0008
581.256	-0.0058
581.598	-0.0081
581.939	-0.0094
582.281	-0.0033
582.622	-0.0048
582.964	-0.007
583.305	-0.0085
583.646	-0.0082
583.988	-0.001
584.329	-0.0008
584.67	-0.0057
585.011	-0.0109
585.352	-0.0152
585.693	-0.0112
586.034	-0.0108
586.375	-0.0116
586.716	-0.0082
587.057	-0.0058
587.398	-0.0043
587.738	-0.0037
588.079	-0.0058
588.42	-0.0055
588.76	-0.0082
589.101	-0.0077
589.441	-0.0081
589.782	-0.0078
590.122	-0.0054
590.463	-0.0038
590.803	-0.0082
591.143	-0.0078
591.483	-0.0081
591.823	-0.0035
592.164	-0.0052
592.504	-0.0026
592.844	-0.0051
593.184	-0.0082
593.523	-0.0104
593.863	-0.0083
594.203	-0.006
594.543	-0.0018
594.883	-0.0052
595.222	-0.0044
595.562	-0.0032
595.901	-0.004
596.241	-0.0062
596.58	-0.0104
596.92	-0.011
597.259	-0.0128
597.599	-0.0122
597.938	-0.0089
598.277	-0.0056
598.616	-0.0089
598.955	-0.008
599.295	-0.008
599.634	-0.0071
599.973	-0.0067
600.312	-0.0095
600.65	-0.0073
600.989	-0.0089
601.328	-0.0035
601.667	0.004
602.005	0.002
602.344	-0.0017
602.683	-0.0075
603.021	-0.0087
603.36	-0.0111
603.698	-0.0125
604.037	-0.0132
604.375	-0.0118
604.713	-0.0137
605.052	-0.0126
605.39	-0.0099
605.728	-0.0067
606.066	0.0018
606.404	0.0002
606.742	-0.0026
607.08	-0.0061
607.418	-0.0066
607.756	-0.0046
608.094	-0.0014
608.431	-0.0036
608.769	-0.0012
609.107	-0.0072
609.444	-0.0039
609.782	-0.0078
610.12	-0.0043
610.457	-0.0043
610.794	-0.0047
611.132	-0.0079
611.469	-0.0096
611.806	-0.0099
612.144	-0.013
612.481	-0.012
612.818	-0.0082
613.155	-0.0043
613.492	-0.0052
613.829	-0.0092
614.166	-0.0071
614.503	-0.005
614.84	-0.0062
615.176	-0.0077
615.513	-0.008
615.85	-0.0065
616.187	-0.0065
616.523	-0.0073
616.86	-0.0049
617.196	-0.0004
617.533	0.002
617.869	-0.003
618.205	-0.0072
618.542	-0.0072
618.878	-0.0078
619.214	-0.0067
619.55	-0.0106
619.886	-0.0064
620.222	-0.0102
620.558	-0.0095
620.894	-0.0126
621.23	-0.0124
621.566	-0.0114
621.902	-0.0076
622.238	-0.0076
622.573	-0.0024
622.909	-0.0036
623.244	-0.0038
623.58	-0.0107
623.916	-0.0128
624.251	-0.0081
624.586	-0.0036
624.922	-0.001
625.257	-0.0048
625.592	-0.0093
625.927	-0.0107
626.263	-0.0087
626.598	-0.0082
626.933	-0.0095
627.268	-0.0118
627.603	-0.0093
627.938	-0.0116
628.272	-0.0065
628.607	-0.0061
628.942	-0.0073
629.277	-0.0115
629.611	-0.0153
629.946	-0.0116
630.281	-0.0132
630.615	-0.0123
630.949	-0.012
631.284	-0.0074
631.618	-0.0054
631.953	-0.0034
632.287	-0.0067
632.621	-0.0082
632.955	-0.0112
633.289	-0.009
633.623	-0.0095
633.957	-0.0055
634.291	-0.0085
634.625	-0.0062
634.959	-0.0105
635.293	-0.0086
635.627	-0.0082
635.96	-0.0019
636.294	-0.0028
636.627	-0.0045
636.961	-0.0061
637.294	-0.0048
637.628	-0.0075
637.961	-0.0099
638.295	-0.0095
638.628	-0.003
638.961	-0.003
639.294	-0.0042
639.628	-0.0079
639.961	-0.0106
640.294	-0.0111
640.627	-0.0112
640.96	-0.005
641.293	-0.0079
641.625	-0.0073
641.958	-0.0096
642.291	-0.0036
642.624	-0.0038
642.956	-0.0092
643.289	-0.0117
643.621	-0.0098
643.954	-0.0091
644.286	-0.0096
644.619	-0.0117
644.951	-0.0115
645.283	-0.0071
645.616	-0.0073
645.948	-0.0016
646.28	-0.0068
646.612	-0.006
646.944	-0.0057
647.276	-0.0054
647.608	-0.0097
647.94	-0.0129
648.272	-0.0126
648.603	-0.0103
648.935	-0.0096
649.267	-0.012
649.598	-0.0116
649.93	-0.0117
650.261	-0.0101
650.593	-0.0101
650.924	-0.0105
651.256	-0.0099
651.587	-0.0066
651.918	-0.0075
652.25	-0.0079
652.581	-0.0113
652.912	-0.0107
653.243	-0.0093
653.574	-0.0072
653.905	-0.0086
654.236	-0.0107
654.567	-0.0096
654.897	-0.0073
655.228	-0.0074
655.559	-0.0059
655.89	-0.0043
656.22	-0.0042
656.551	-0.0086
656.881	-0.0102
657.212	-0.0054
657.542	-0.0028
657.872	-0.0072
658.203	-0.0148
658.533	-0.002
658.863	0.0134
659.193	-0.0018
659.523	-0.0077
659.853	-0.0259
660.183	-0.017
660.513	-0.0105
660.843	-0.0053
661.173	-0.0079
661.503	-0.009
661.833	-0.0082
662.162	-0.0083
662.492	-0.0064
662.822	-0.0069
663.151	-0.0061
663.481	-0.0074
663.81	-0.0066
664.139	-0.0041
664.469	-0.0017
664.798	-0.0077
665.127	-0.0091
665.456	-0.0149
665.785	-0.0093
666.114	-0.0048
666.443	-0.0033
666.772	-0.0049
667.101	-0.0087
667.43	-0.008
667.759	-0.0073
668.088	-0.0109
668.416	-0.0127
668.745	-0.0114
669.074	-0.01
669.402	-0.0087
669.731	-0.0123
670.059	-0.0043
670.388	-0.006
670.716	-0.0049
671.044	-0.0084
671.372	-0.0066
671.701	-0.0064
672.029	-0.0095
672.357	-0.0086
672.685	-0.0088
673.013	-0.0088
673.341	-0.0084
673.669	-0.0087
673.996	-0.0055
674.324	-0.0038
674.652	-0.0009
674.98	-0.0061
675.307	-0.0081
675.635	-0.0111
675.962	-0.0081
676.29	-0.0118
676.617	-0.0115
676.945	-0.0104
677.272	-0.0113
677.599	-0.0121
677.926	-0.012
678.253	-0.0112
678.581	-0.0156
678.908	-0.0176
679.235	-0.011
679.561	-0.0048
679.888	-0.0072
680.215	-0.0079
680.542	-0.0057
680.869	-0.0034
681.195	-0.004
681.522	-0.0056
681.849	-0.0085
682.175	-0.0111
682.502	-0.0139
682.828	-0.0136
683.154	-0.0111
683.481	-0.0081
683.807	-0.0067
684.133	-0.0092
684.459	-0.0091
684.785	-0.0053
685.111	-0.0038
685.437	-0.0085
685.763	-0.0122
686.089	-0.0155
686.415	-0.0103
686.741	-0.0102
687.067	-0.0041
687.392	-0.0058
687.718	-0.005
688.043	-0.0108
688.369	-0.0112
688.694	-0.0107
689.02	-0.0122
689.345	-0.0118
689.67	-0.0134
689.996	-0.0059
690.321	-0.0018
690.646	-0.0027
690.971	-0.0034
691.296	-0.0124
691.621	-0.0115
691.946	-0.0112
692.271	-0.0069
692.596	-0.0023
692.921	-0.0041
693.245	-0.0045
693.57	-0.0077
693.895	-0.0104
694.219	-0.0126
694.544	-0.01
694.868	-0.0075
695.193	-0.0025
695.517	-0.0037
695.841	-0.008
696.166	-0.0109
696.49	-0.0165
696.814	-0.0119
697.138	-0.0112
697.462	-0.0057
697.786	-0.0051
698.11	-0.0006
698.434	0.0008
698.758	-0.0034
699.081	-0.0067
699.405	-0.0074
699.729	0.0007
700.052	0.0031
700.376	-0.0042
700.7	-0.0087
701.023	-0.0117
701.346	-0.0086
701.67	-0.01
701.993	-0.0086
702.316	-0.0067
702.639	-0.006
702.963	-0.0063
703.286	-0.0078
703.609	-0.0083
703.932	-0.0129
704.255	-0.0084
704.578	-0.0115
704.9	-0.0082
705.223	-0.0142
705.546	-0.0068
705.868	-0.0062
706.191	-0.0064
706.514	-0.0109
706.836	-0.0119
707.159	-0.0068
707.481	-0.0043
707.803	-0.0049
708.126	-0.0067
708.448	-0.0064
708.77	-0.011
709.092	-0.0097
709.414	-0.0108
709.736	-0.0063
710.058	-0.0046
710.38	-0.0072
710.702	-0.0048
711.024	-0.0093
711.345	-0.0096
711.667	-0.014
711.989	-0.0145
712.31	-0.0155
712.632	-0.0154
712.953	-0.0142
713.275	-0.0128
713.596	-0.0095
713.917	-0.0101
714.239	-0.0078
714.56	-0.0086
714.881	-0.0076
715.202	-0.011
715.523	-0.0129
715.844	-0.012
716.165	-0.0123
716.486	-0.0098
716.807	-0.0073
717.128	-0.0023
717.448	-0.0019
717.769	-0.0016
718.09	-0.0088
718.41	-0.0153
718.731	-0.0176
719.051	-0.0132
719.372	-0.0115
719.692	-0.0108
720.012	-0.0075
720.332	-0.0043
720.653	-0.0021
720.973	0.0004
721.293	0.0004
721.613	-0.0046
721.933	-0.0087
722.253	-0.0059
722.573	-0.0013
722.892	-0.0033
723.212	-0.0068
723.532	-0.0073
723.851	-0.0092
724.171	-0.0161
724.491	-0.0197
724.81	-0.0143
725.129	-0.0081
725.449	-0.005
725.768	-0.0069
726.087	-0.0046
726.407	-0.0054
726.726	-0.006
727.045	-0.0044
727.364	-0.0055
727.683	-0.0053
728.002	-0.0148
728.321	-0.0156
728.64	-0.0159
728.958	-0.0128
729.277	-0.0098
729.596	-0.0099
729.914	-0.008
730.233	-0.0143
730.551	-0.0139
730.87	-0.0122
731.188	-0.009
731.507	-0.0084
731.825	-0.0121
732.143	-0.0136
732.461	-0.0124
732.779	-0.0115
733.097	-0.0124
733.415	-0.0135
733.733	-0.0088
734.051	-0.0084
734.369	-0.0085
734.687	-0.0118
735.005	-0.009
735.322	-0.0083
735.64	-0.0087
735.957	-0.0129
736.275	-0.0213
736.592	-0.0202
736.91	-0.0158
737.227	-0.0075
737.544	-0.0061
737.862	-0.0083
738.179	-0.0089
738.496	-0.0108
738.813	-0.0098
739.13	-0.0107
739.447	-0.0102
739.764	-0.0078
740.081	-0.0068
740.398	-0.0131
740.714	-0.0157
741.031	-0.019
741.348	-0.0104
741.664	-0.0072
741.981	0.0007
742.297	-0.0024
742.614	-0.0042
742.93	-0.0102
743.246	-0.0128
743.563	-0.0145
743.879	-0.0119
744.195	-0.0124
744.511	-0.0095
744.827	-0.0087
745.143	-0.0055
745.459	-0.0055
745.775	-0.0118
746.091	-0.0133
746.406	-0.0194
746.722	-0.0151
747.038	-0.0133
747.353	-0.013
747.669	-0.0171
747.984	-0.0181
748.3	-0.0132
748.615	-0.0082
748.93	-0.0088
749.246	-0.0141
749.561	-0.0179
749.876	-0.014
750.191	-0.0095
750.506	-0.0045
750.821	-0.0044
751.136	-0.0046
751.451	-0.0059
751.766	-0.0092
752.08	-0.0054
752.395	-0.0017
752.71	-0.0019
753.024	-0.004
753.339	-0.009
753.653	-0.0107
753.968	-0.0131
754.282	-0.0114
754.596	-0.0103
754.911	-0.0091
755.225	-0.01
755.539	-0.0094
755.853	-0.0114
756.167	-0.0137
756.481	-0.0096
756.795	-0.0063
757.109	-0.0026
757.423	-0.0087
757.736	-0.0094
758.05	-0.0141
758.364	-0.0097
758.677	-0.0093
758.991	-0.0072
759.304	-0.0061
759.618	-0.0086
759.931	-0.0113
760.244	-0.0146
760.558	-0.0137
760.871	-0.0112
761.184	-0.0152
761.497	-0.0192
761.81	-0.0226
762.123	-0.0144
762.436	-0.0122
762.749	-0.0102
763.062	-0.009
763.374	-0.0075
763.687	-0.003
764	-0.0057
764.312	-0.0031
764.625	-0.0062
764.937	-0.0083
765.25	-0.0132
765.562	-0.0107
765.874	-0.0054
766.186	-0.0014
766.499	-0.0052
766.811	-0.0115
767.123	-0.0092
767.435	-0.0072
767.747	-0.0031
768.059	-0.009
768.37	-0.0112
768.682	-0.0127
768.994	-0.0131
769.306	-0.0104
769.617	-0.009
769.929	-0.0034
770.24	-0.0011
770.552	0.0007
770.863	-0.0083
771.174	-0.0128
771.486	-0.0157
771.797	-0.0126
772.108	-0.011
772.419	-0.0105
772.73	-0.0061
773.041	-0.0061
773.352	-0.0053
773.663	-0.0055
773.974	-0.0021
774.285	-0.0045
774.595	-0.0097
774.906	-0.0156
775.217	-0.0144
775.527	-0.0098
775.838	-0.0104
776.148	-0.012
776.458	-0.0169
776.769	-0.0162
777.079	-0.0152
777.389	-0.0156
777.699	-0.0141
778.009	-0.0102
778.319	-0.0044
778.629	-0.0027
778.939	-0.0097
779.249	-0.0071
779.559	-0.0085
779.869	-0.0084
780.178	-0.0168
780.488	-0.0184
780.798	-0.0169
781.107	-0.0129
781.417	-0.0146
781.726	-0.0143
782.035	-0.012
782.345	-0.008
782.654	-0.0054
782.963	-0.0128
783.272	-0.0101
783.581	-0.0056
783.89	0.002
784.199	-0.0024
784.508	-0.0095
784.817	-0.0136
785.126	-0.0127
785.434	-0.0096
785.743	-0.0078
786.052	-0.0106
786.36	-0.0095
786.669	-0.0127
786.977	-0.0144
787.285	-0.0175
787.594	-0.0128
787.902	-0.0065
788.21	-0.0086
788.518	-0.0116
788.826	-0.0174
789.135	-0.0195
789.442	-0.022
789.75	-0.0172
790.058	-0.0171
790.366	-0.0122
790.674	-0.0131
790.981	-0.0058
791.289	-0.0053
791.597	-0.0032
791.904	-0.0052
792.212	-0.0099
792.519	-0.0124
792.826	-0.0076
793.134	-0.0046
793.441	-0.0036
793.748	-0.0065
794.055	-0.0037
794.362	-0.0103
794.669	-0.0127
794.976	-0.016
795.283	-0.0067
795.59	-0.0038
795.897	-0.0029
796.203	-0.0064
796.51	-0.0056
796.817	0.0017
797.123	-0.0019
797.43	-0.0079
797.736	-0.0152
798.042	-0.0157
798.349	-0.0149
798.655	-0.0147
798.961	-0.0133
799.267	-0.0129
799.573	-0.0121
799.879	-0.0144
800.185	-0.0133
800.491	-0.013
800.797	-0.0119
801.103	-0.0122
801.408	-0.0068
801.714	-0.0032
802.02	-0.0022
802.325	-0.0056
802.631	-0.0107
802.936	-0.0091
803.242	-0.0077
803.547	-0.0102
803.852	-0.0126
804.157	-0.0158
804.462	-0.0115
804.768	-0.0048
805.073	-0.0071
805.378	-0.0078
805.682	-0.0131
805.987	-0.0054
806.292	-0.0018
806.597	-0.0047
806.902	-0.0085
807.206	-0.0198
807.511	-0.0213
807.815	-0.0202
808.12	-0.0134
808.424	-0.0086
808.728	-0.0162
809.033	-0.0127
809.337	-0.0154
809.641	-0.0159
809.945	-0.016
810.249	-0.019
810.553	-0.0198
810.857	-0.0277
811.161	-0.0216
811.465	-0.0137
811.768	-0.0064
812.072	-0.011
812.376	-0.0115
812.679	-0.0099
812.983	-0.0073
813.286	-0.0143
813.59	-0.0163
813.893	-0.0124
814.196	-0.0083
814.499	-0.0126
814.803	-0.0208
815.106	-0.0187
815.409	-0.0093
815.712	-0.0008
816.015	-0.0099
816.318	-0.0093
816.62	-0.0121
816.923	-0.0036
817.226	-0.0093
817.528	-0.0066
817.831	-0.0073
818.133	-0.0083
818.436	-0.0168
818.738	-0.0174
819.041	-0.0194
819.343	-0.013
819.645	-0.0137
819.947	-0.0099
820.249	-0.0145
820.551	-0.0052
820.853	-0.0104
821.155	-0.003
821.457	-0.0157
821.759	-0.0129
822.061	-0.0175
822.362	-0.0169
822.664	-0.0126
822.966	-0.014
823.267	-0.0109
823.569	-0.0102
823.87	-0.0059
824.171	-0.0073
824.473	-0.0145
824.774	-0.0155
825.075	-0.0039
825.376	0.0036
825.677	0.0036
825.978	-0.007
826.279	-0.0094
826.58	-0.0127
826.881	-0.0144
827.181	-0.0128
827.482	-0.008
827.783	-0.009
828.083	-0.0113
828.384	-0.0103
828.684	-0.0018
828.985	-0.0021
829.285	-0.0051
829.585	-0.01
829.885	-0.0077
830.185	-0.0103
830.486	-0.0172
830.786	-0.0218
831.086	-0.0193
831.385	-0.0172
831.685	-0.0153
831.985	-0.0098
832.285	-0.004
832.585	0.0074
832.884	0.0058
833.184	0.0039
833.483	-0.0053
833.783	-0.0016
834.082	0.0001
834.381	0.0021
834.681	-0.0036
834.98	-0.007
835.279	-0.0066
835.578	-0.0077
835.877	-0.0072
836.176	-0.0165
836.475	-0.0101
836.774	-0.0167
837.072	-0.0137
837.371	-0.0168
837.67	-0.0034
837.968	-0.0055
838.267	-0.0133
838.565	-0.0218
838.864	-0.0227
839.162	-0.0222
839.46	-0.0177
839.759	-0.0041
840.057	-0.0004
840.355	-0.0014
840.653	0.0022
840.951	-0.0057
841.249	-0.0111
841.547	-0.0225
841.845	-0.0208
842.142	-0.0086
842.44	-0.0096
842.738	-0.0033
843.035	-0.0219
843.333	-0.0302
843.63	-0.0333
843.928	-0.0167
844.225	-0.0019
844.522	0.0095
844.82	0.004
845.117	-0.0062
845.414	-0.0228
845.711	-0.019
846.008	-0.0214
846.305	-0.0151
846.602	-0.0286
846.898	-0.0269
847.195	-0.0307
847.492	-0.022
847.788	-0.0297
848.085	-0.0345
848.382	-0.0369
848.678	-0.023
848.974	-0.0226
849.271	-0.0231
849.567	-0.0176
849.863	-0.0062
850.159	-0.0182
850.455	-0.0106
850.751	-0.0133
851.047	-0.0009
851.343	-0.0101
851.639	-0.0193
851.935	-0.0184
852.23	-0.0322
852.526	-0.0132
852.822	-0.0196
853.117	-0.0113
853.413	-0.0227
853.708	-0.0294
854.003	-0.0423
854.299	-0.0417
854.594	-0.0338
854.889	-0.0199
855.184	-0.0266
855.479	-0.0212
855.774	-0.0148
856.069	-0.0036
856.364	0.0053
856.659	-0.0077
856.954	-0.0226
857.248	-0.036
857.543	-0.0298
857.837	-0.031
858.132	-0.0133
858.426	-0.0007
858.721	0.0082
859.015	-0.0035
859.309	-0.0127
859.604	0.0095
859.898	0.0121
860.192	-0.0038
860.486	-0.0026
860.78	0.0048
861.074	0.023
861.367	-0.0026
861.661	-0.0047
861.955	-0.0059
862.248	0.0029
862.542	-0.0161
862.836	-0.0269
863.129	-0.0371
863.422	-0.0535
863.716	-0.0291
864.009	-0.0263
864.302	0.0002
864.595	-0.0099
864.889	-0.0106
865.182	0.0117
865.475	0.0134
865.767	0.0207
866.06	0.0101
866.353	0.0038
866.646	-0.0187
866.938	-0.0469
867.231	-0.0428
867.524	-0.0067
867.816	0.0148
868.109	0.0138
868.401	-0.0046
868.693	-0.0041
868.985	0.0084
869.278	-0.0159
869.57	-0.022
869.862	-0.0442
870.154	-0.0193
870.446	-0.0322
870.738	-0.0253
871.029	-0.016
871.321	-0.0071
871.613	-0.0059
871.904	-0.0215
872.196	-0.0166
872.487	-0.0192
872.779	-0.0024
873.07	-0.0064
873.362	-0.0183
873.653	-0.0434
873.944	-0.0545
874.235	-0.0257
874.526	0.0029
874.817	0.0013
875.108	-0.0079
875.399	-0.0311
875.69	-0.0502
875.981	-0.0479
876.271	-0.0421
876.562	-0.0096
876.853	0.0047
877.143	0.0061
877.434	-0.0138
877.724	-0.0237
878.014	-0.0052
878.305	0.0193
878.595	0.0104
878.885	-0.014
879.175	-0.0224
879.465	-0.0228
879.755	0.0026
880.045	0.0041
880.335	0.0009
880.624	-0.0326
880.914	-0.0326
