Data from 35SS02OI_072017_1b_Absorbance_18-06-30-810.txt Node
Date: Fri Jul 28 18:06:30 MDT 2017
User: Tank Lab
Spectrometer: FLMS01220
Trigger mode: 0
Integration Time (sec): 1.000000E-1
Scans to average: 10
Electric dark correction enabled: true
Nonlinearity correction enabled: false
Boxcar width: 1
XAxis mode: Wavelengths
Number of Pixels in Spectrum: 2048
>>>>>Begin Spectral Data<<<<<
179.47	-0
179.856	-0
180.241	-0
180.626	-0
181.011	0.2072
181.396	-0.0708
181.781	-0.1971
182.166	-0.1209
182.551	-0
182.936	0.6412
183.321	-0
183.706	0.042
184.091	-0.5125
184.476	-0.3017
184.86	-0
185.245	-0.8433
185.63	0.0845
186.015	0.8735
186.399	-0
186.784	-0
187.169	1.0088
187.553	-0
187.938	-0
188.322	0.1109
188.707	0.135
189.091	0.1607
189.475	0.1983
189.86	0.228
190.244	0.2658
190.629	0.2442
191.013	0.3124
191.397	0.3921
191.781	0.4903
192.165	0.5352
192.55	0.5638
192.934	0.5911
193.318	0.6076
193.702	0.6619
194.086	0.6795
194.47	0.7141
194.854	0.715
195.238	0.7204
195.622	0.7287
196.006	0.754
196.389	0.7631
196.773	0.787
197.157	0.7962
197.541	0.8263
197.924	0.8065
198.308	0.8198
198.692	0.8127
199.075	0.8325
199.459	0.8194
199.843	0.8266
200.226	0.8288
200.61	0.8338
200.993	0.8227
201.376	0.8233
201.76	0.8133
202.143	0.8153
202.527	0.7997
202.91	0.7993
203.293	0.7981
203.676	0.7992
204.059	0.8133
204.443	0.8259
204.826	0.8387
205.209	0.8283
205.592	0.8322
205.975	0.836
206.358	0.8444
206.741	0.8326
207.124	0.8391
207.507	0.8304
207.89	0.8395
208.273	0.831
208.655	0.8307
209.038	0.8177
209.421	0.8034
209.804	0.7985
210.186	0.8051
210.569	0.8135
210.951	0.8188
211.334	0.8178
211.717	0.8207
212.099	0.811
212.482	0.8049
212.864	0.7981
213.246	0.8028
213.629	0.7977
214.011	0.798
214.393	0.798
214.776	0.7977
215.158	0.7957
215.54	0.7958
215.922	0.8002
216.305	0.7966
216.687	0.7915
217.069	0.7791
217.451	0.7735
217.833	0.7724
218.215	0.7765
218.597	0.7743
218.979	0.7637
219.361	0.75
219.742	0.7412
220.124	0.7458
220.506	0.7524
220.888	0.7535
221.27	0.7438
221.651	0.7404
222.033	0.7347
222.415	0.7355
222.796	0.7332
223.178	0.7357
223.559	0.7261
223.941	0.716
224.322	0.71
224.704	0.7063
225.085	0.7067
225.466	0.7031
225.848	0.6999
226.229	0.6976
226.61	0.691
226.992	0.6914
227.373	0.6868
227.754	0.6869
228.135	0.6789
228.516	0.6762
228.897	0.6728
229.278	0.6738
229.659	0.6674
230.04	0.6638
230.421	0.6571
230.802	0.6577
231.183	0.6562
231.564	0.6588
231.944	0.6542
232.325	0.6486
232.706	0.6432
233.087	0.6397
233.467	0.6382
233.848	0.6341
234.229	0.63
234.609	0.6286
234.99	0.6267
235.37	0.6271
235.751	0.6224
236.131	0.6174
236.511	0.613
236.892	0.6109
237.272	0.6114
237.652	0.6083
238.033	0.604
238.413	0.5979
238.793	0.5959
239.173	0.5934
239.553	0.5923
239.933	0.5893
240.313	0.5872
240.694	0.5835
241.074	0.5791
241.453	0.5752
241.833	0.5718
242.213	0.5724
242.593	0.5703
242.973	0.5686
243.353	0.5619
243.732	0.5615
244.112	0.5587
244.492	0.5583
244.872	0.5563
245.251	0.5572
245.631	0.5548
246.01	0.5513
246.39	0.5458
246.769	0.5447
247.149	0.5404
247.528	0.5404
247.908	0.5371
248.287	0.5356
248.666	0.5304
249.045	0.5299
249.425	0.5291
249.804	0.5301
250.183	0.5276
250.562	0.5258
250.941	0.5225
251.32	0.5207
251.699	0.5188
252.078	0.5167
252.457	0.5153
252.836	0.5132
253.215	0.5139
253.594	0.5124
253.973	0.5115
254.352	0.5093
254.731	0.5062
255.109	0.5035
255.488	0.5012
255.867	0.4993
256.245	0.4977
256.624	0.4964
257.002	0.4935
257.381	0.4929
257.759	0.4899
258.138	0.4893
258.516	0.4855
258.895	0.4847
259.273	0.4857
259.651	0.4847
260.03	0.4845
260.408	0.4803
260.786	0.4796
261.164	0.4775
261.542	0.4769
261.921	0.4757
262.299	0.4764
262.677	0.4744
263.055	0.4741
263.433	0.4688
263.811	0.4662
264.188	0.4628
264.566	0.4601
264.944	0.4597
265.322	0.4569
265.7	0.4563
266.077	0.4541
266.455	0.4536
266.833	0.4525
267.21	0.45
267.588	0.4495
267.966	0.4483
268.343	0.4459
268.721	0.4424
269.098	0.439
269.475	0.4374
269.853	0.4358
270.23	0.4342
270.607	0.4328
270.985	0.4305
271.362	0.4269
271.739	0.426
272.116	0.4249
272.494	0.4241
272.871	0.4227
273.248	0.421
273.625	0.4185
274.002	0.4142
274.379	0.411
274.756	0.4099
275.132	0.4082
275.509	0.4066
275.886	0.4046
276.263	0.4036
276.64	0.4014
277.016	0.4002
277.393	0.3983
277.77	0.3939
278.146	0.3899
278.523	0.3877
278.899	0.3873
279.276	0.3848
279.652	0.382
280.029	0.3813
280.405	0.3793
280.782	0.3767
281.158	0.3748
281.534	0.3715
281.91	0.3693
282.287	0.3667
282.663	0.369
283.039	0.3688
283.415	0.3653
283.791	0.3597
284.167	0.3569
284.543	0.3559
284.919	0.3547
285.295	0.3525
285.671	0.3505
286.047	0.3498
286.423	0.3473
286.799	0.3466
287.174	0.3434
287.55	0.3427
287.926	0.3404
288.301	0.3393
288.677	0.3365
289.053	0.3337
289.428	0.3325
289.804	0.3307
290.179	0.3289
290.555	0.3281
290.93	0.3269
291.305	0.326
291.681	0.3237
292.056	0.3225
292.431	0.3198
292.806	0.3168
293.182	0.3132
293.557	0.312
293.932	0.3114
294.307	0.312
294.682	0.3104
295.057	0.3092
295.432	0.3066
295.807	0.305
296.182	0.3043
296.557	0.3032
296.932	0.3031
297.306	0.3001
297.681	0.2973
298.056	0.2954
298.43	0.2934
298.805	0.2914
299.18	0.2889
299.554	0.2877
299.929	0.2887
300.303	0.2876
300.678	0.2851
301.052	0.2823
301.427	0.2801
301.801	0.2786
302.175	0.2779
302.55	0.2771
302.924	0.2772
303.298	0.2741
303.672	0.2719
304.046	0.2697
304.421	0.2692
304.795	0.2691
305.169	0.2682
305.543	0.2645
305.917	0.2626
306.291	0.2605
306.664	0.2614
307.038	0.2591
307.412	0.2576
307.786	0.2555
308.16	0.2557
308.533	0.2551
308.907	0.2553
309.281	0.2551
309.654	0.2525
310.028	0.2505
310.401	0.247
310.775	0.2461
311.148	0.2459
311.522	0.2446
311.895	0.2437
312.268	0.2424
312.642	0.2403
313.015	0.2403
313.388	0.2376
313.761	0.2374
314.135	0.237
314.508	0.2377
314.881	0.2363
315.254	0.2326
315.627	0.2297
316	0.2302
316.373	0.2294
316.746	0.2283
317.118	0.2256
317.491	0.2249
317.864	0.2253
318.237	0.2246
318.61	0.223
318.982	0.2193
319.355	0.2183
319.727	0.2174
320.1	0.2166
320.473	0.2128
320.845	0.2117
321.218	0.2107
321.59	0.2116
321.962	0.2102
322.335	0.2091
322.707	0.2077
323.079	0.2055
323.452	0.2063
323.824	0.206
324.196	0.2062
324.568	0.2026
324.94	0.1991
325.312	0.1992
325.684	0.1998
326.056	0.1998
326.428	0.1969
326.8	0.1941
327.172	0.1933
327.544	0.1908
327.915	0.1892
328.287	0.1874
328.659	0.1894
329.031	0.1911
329.402	0.1901
329.774	0.1864
330.145	0.1818
330.517	0.1802
330.888	0.1786
331.26	0.1791
331.631	0.1787
332.003	0.1805
332.374	0.1784
332.745	0.1778
333.117	0.1755
333.488	0.1741
333.859	0.1739
334.23	0.1739
334.601	0.175
334.972	0.1743
335.343	0.1726
335.714	0.1699
336.085	0.1676
336.456	0.1668
336.827	0.1667
337.198	0.1674
337.569	0.165
337.94	0.1639
338.31	0.1623
338.681	0.1618
339.052	0.1611
339.422	0.1602
339.793	0.1603
340.164	0.1604
340.534	0.1595
340.905	0.1573
341.275	0.1562
341.645	0.1538
342.016	0.1548
342.386	0.154
342.756	0.1558
343.127	0.1534
343.497	0.1517
343.867	0.1504
344.237	0.1508
344.607	0.1484
344.977	0.147
345.347	0.1469
345.717	0.1467
346.087	0.1435
346.457	0.1416
346.827	0.1413
347.197	0.1422
347.567	0.1414
347.936	0.1434
348.306	0.1431
348.676	0.1438
349.046	0.141
349.415	0.1406
349.785	0.1395
350.154	0.137
350.524	0.1349
350.893	0.1318
351.263	0.133
351.632	0.1323
352.001	0.1332
352.371	0.1325
352.74	0.1317
353.109	0.1313
353.478	0.1312
353.847	0.1315
354.217	0.1306
354.586	0.1288
354.955	0.1287
355.324	0.1266
355.693	0.1278
356.062	0.1273
356.43	0.1273
356.799	0.1243
357.168	0.1222
357.537	0.1217
357.906	0.121
358.274	0.1204
358.643	0.1176
359.011	0.1171
359.38	0.1166
359.749	0.1184
360.117	0.1176
360.486	0.1162
360.854	0.1153
361.222	0.114
361.591	0.1146
361.959	0.1115
362.327	0.1105
362.695	0.1075
363.064	0.1092
363.432	0.1102
363.8	0.1111
364.168	0.1091
364.536	0.1078
364.904	0.1055
365.272	0.1026
365.64	0.1015
366.008	0.1011
366.376	0.103
366.743	0.1029
367.111	0.1033
367.479	0.1006
367.847	0.0991
368.214	0.0985
368.582	0.0994
368.949	0.101
369.317	0.0981
369.684	0.0957
370.052	0.0932
370.419	0.0956
370.787	0.0989
371.154	0.0985
371.521	0.0995
371.889	0.0976
372.256	0.0959
372.623	0.0931
372.99	0.091
373.357	0.0906
373.724	0.0908
374.091	0.0912
374.458	0.0918
374.825	0.0887
375.192	0.0879
375.559	0.0871
375.926	0.0874
376.293	0.0858
376.659	0.0855
377.026	0.0857
377.393	0.087
377.759	0.0872
378.126	0.0874
378.492	0.0849
378.859	0.0842
379.225	0.0818
379.592	0.0845
379.958	0.0828
380.325	0.0829
380.691	0.0795
381.057	0.0768
381.423	0.0761
381.79	0.075
382.156	0.0745
382.522	0.0749
382.888	0.0766
383.254	0.08
383.62	0.0798
383.986	0.0773
384.352	0.074
384.718	0.0722
385.084	0.0723
385.449	0.0712
385.815	0.0712
386.181	0.0723
386.547	0.0744
386.912	0.0734
387.278	0.0717
387.643	0.0692
388.009	0.0716
388.374	0.0702
388.74	0.0725
389.105	0.0701
389.471	0.0712
389.836	0.0689
390.201	0.0695
390.566	0.0684
390.932	0.0688
391.297	0.0665
391.662	0.065
392.027	0.0644
392.392	0.0625
392.757	0.0626
393.122	0.0625
393.487	0.0642
393.852	0.0642
394.217	0.064
394.582	0.0637
394.946	0.063
395.311	0.0613
395.676	0.0609
396.04	0.0612
396.405	0.0614
396.77	0.0618
397.134	0.0589
397.499	0.0599
397.863	0.0582
398.227	0.0611
398.592	0.0588
398.956	0.0578
399.32	0.0563
399.685	0.0559
400.049	0.0574
400.413	0.0558
400.777	0.0548
401.141	0.0546
401.505	0.0567
401.869	0.0567
402.233	0.0542
402.597	0.052
402.961	0.0513
403.325	0.0524
403.689	0.0522
404.053	0.0526
404.416	0.0502
404.78	0.0487
405.144	0.05
405.507	0.0532
405.871	0.0545
406.234	0.0528
406.598	0.05
406.961	0.0491
407.325	0.0465
407.688	0.0474
408.051	0.048
408.415	0.0513
408.778	0.05
409.141	0.0484
409.504	0.048
409.867	0.0466
410.23	0.0472
410.593	0.0454
410.956	0.0459
411.319	0.0458
411.682	0.043
412.045	0.0421
412.408	0.0401
412.771	0.043
413.134	0.0427
413.496	0.0434
413.859	0.044
414.222	0.0453
414.584	0.0474
414.947	0.046
415.309	0.0465
415.672	0.0452
416.034	0.0455
416.396	0.0417
416.759	0.0405
417.121	0.0387
417.483	0.0392
417.846	0.0395
418.208	0.04
418.57	0.041
418.932	0.039
419.294	0.0398
419.656	0.0399
420.018	0.0403
420.38	0.0374
420.742	0.0358
421.104	0.0381
421.466	0.0385
421.827	0.0383
422.189	0.0355
422.551	0.0373
422.912	0.0388
423.274	0.0396
423.636	0.0374
423.997	0.036
424.359	0.0363
424.72	0.0386
425.081	0.0401
425.443	0.0401
425.804	0.0377
426.165	0.0371
426.527	0.0367
426.888	0.0369
427.249	0.0381
427.61	0.0392
427.971	0.0383
428.332	0.0355
428.693	0.0331
429.054	0.0325
429.415	0.0334
429.776	0.0315
430.137	0.0334
430.498	0.0337
430.858	0.0378
431.219	0.0359
431.58	0.0348
431.94	0.034
432.301	0.0355
432.661	0.0342
433.022	0.0329
433.382	0.0328
433.743	0.0338
434.103	0.0327
434.463	0.0312
434.824	0.0309
435.184	0.0323
435.544	0.0332
435.904	0.0324
436.264	0.0304
436.624	0.0314
436.985	0.0313
437.345	0.0318
437.704	0.03
438.064	0.0304
438.424	0.0308
438.784	0.0299
439.144	0.031
439.504	0.0291
439.863	0.0288
440.223	0.0279
440.583	0.0272
440.942	0.0277
441.302	0.0273
441.661	0.0262
442.021	0.0273
442.38	0.0266
442.739	0.029
443.099	0.0247
443.458	0.0266
443.817	0.0255
444.176	0.0285
444.536	0.0244
444.895	0.0251
445.254	0.0237
445.613	0.0264
445.972	0.0274
446.331	0.0281
446.69	0.0288
447.049	0.0253
447.407	0.0246
447.766	0.0225
448.125	0.0236
448.484	0.0253
448.842	0.025
449.201	0.0268
449.559	0.0243
449.918	0.0237
450.276	0.0227
450.635	0.0224
450.993	0.0211
451.352	0.0218
451.71	0.0246
452.068	0.0243
452.426	0.0225
452.785	0.0199
453.143	0.0225
453.501	0.024
453.859	0.0218
454.217	0.0217
454.575	0.0198
454.933	0.0201
455.291	0.0218
455.649	0.0248
456.006	0.0271
456.364	0.026
456.722	0.0241
457.079	0.0232
457.437	0.0228
457.795	0.0231
458.152	0.0233
458.51	0.0231
458.867	0.0212
459.225	0.0222
459.582	0.0206
459.939	0.0197
460.297	0.0188
460.654	0.0211
461.011	0.0203
461.368	0.0216
461.725	0.0187
462.082	0.0227
462.44	0.0197
462.797	0.0185
463.153	0.0175
463.51	0.0189
463.867	0.02
464.224	0.0218
464.581	0.0227
464.938	0.0249
465.294	0.0232
465.651	0.0241
466.008	0.0202
466.364	0.0205
466.721	0.0171
467.077	0.0171
467.434	0.0141
467.79	0.0175
468.146	0.0191
468.503	0.0202
468.859	0.0168
469.215	0.0154
469.571	0.0159
469.927	0.0176
470.284	0.0189
470.64	0.0186
470.996	0.0194
471.352	0.0201
471.707	0.0192
472.063	0.0193
472.419	0.0191
472.775	0.021
473.131	0.021
473.486	0.0167
473.842	0.0159
474.198	0.017
474.553	0.0209
474.909	0.0215
475.264	0.0202
475.62	0.0215
475.975	0.0199
476.331	0.0199
476.686	0.02
477.041	0.0199
477.396	0.0174
477.752	0.0156
478.107	0.0147
478.462	0.0146
478.817	0.0158
479.172	0.0178
479.527	0.017
479.882	0.0156
480.237	0.0166
480.591	0.0176
480.946	0.0177
481.301	0.0153
481.656	0.0147
482.01	0.0145
482.365	0.014
482.72	0.0175
483.074	0.0173
483.429	0.0168
483.783	0.0135
484.137	0.0138
484.492	0.0154
484.846	0.0165
485.2	0.0151
485.555	0.0153
485.909	0.0144
486.263	0.0166
486.617	0.0153
486.971	0.017
487.325	0.0175
487.679	0.0162
488.033	0.0154
488.387	0.0151
488.741	0.0156
489.094	0.0124
489.448	0.0092
489.802	0.0115
490.156	0.0125
490.509	0.0147
490.863	0.0116
491.216	0.0122
491.57	0.0111
491.923	0.0118
492.277	0.0122
492.63	0.0143
492.983	0.0153
493.337	0.0146
493.69	0.0132
494.043	0.0127
494.396	0.0133
494.749	0.0121
495.102	0.0091
495.455	0.0094
495.808	0.0099
496.161	0.0128
496.514	0.0134
496.867	0.0126
497.22	0.0136
497.572	0.0118
497.925	0.0122
498.278	0.0105
498.63	0.0123
498.983	0.012
499.335	0.0115
499.688	0.009
500.04	0.0083
500.393	0.0091
500.745	0.0106
501.097	0.0116
501.449	0.013
501.802	0.0114
502.154	0.0097
502.506	0.0068
502.858	0.0074
503.21	0.0087
503.562	0.0074
503.914	0.008
504.266	0.0076
504.618	0.0094
504.969	0.0102
505.321	0.0084
505.673	0.0081
506.025	0.0072
506.376	0.0083
506.728	0.009
507.079	0.0102
507.431	0.0115
507.782	0.0112
508.134	0.0095
508.485	0.0097
508.836	0.0098
509.188	0.0106
509.539	0.0089
509.89	0.0105
510.241	0.008
510.592	0.0104
510.943	0.008
511.294	0.0111
511.645	0.0094
511.996	0.0099
512.347	0.0056
512.698	0.0068
513.049	0.0093
513.399	0.0132
513.75	0.0123
514.101	0.0096
514.451	0.0092
514.802	0.0071
515.152	0.0065
515.503	0.0072
515.853	0.0101
516.203	0.0106
516.554	0.011
516.904	0.0094
517.254	0.0093
517.604	0.0067
517.955	0.0084
518.305	0.0078
518.655	0.0087
519.005	0.0046
519.355	0.0065
519.705	0.0039
520.055	0.0049
520.404	0.001
520.754	0.0021
521.104	0.003
521.454	0.0063
521.803	0.0057
522.153	0.0058
522.502	0.0047
522.852	0.0095
523.201	0.0096
523.551	0.011
523.9	0.0047
524.249	0.0047
524.599	0.0054
524.948	0.0094
525.297	0.0081
525.646	0.0053
525.995	0.0028
526.344	0.0056
526.694	0.0056
527.042	0.0077
527.391	0.0038
527.74	0.0055
528.089	0.0058
528.438	0.0095
528.787	0.0069
529.135	0.0039
529.484	0
529.833	0.0022
530.181	0.0003
530.53	0.0022
530.878	-0.0001
531.227	0.0017
531.575	0.0021
531.923	0.0027
532.271	0.0034
532.62	0.0044
532.968	0.004
533.316	0.0039
533.664	0.0052
534.012	0.0076
534.36	0.0091
534.708	0.0066
535.056	0.005
535.404	0.0045
535.752	0.0036
536.1	0.0038
536.447	0.0043
536.795	0.0033
537.143	0.0036
537.49	0.0017
537.838	0.0022
538.185	0.0021
538.533	0.0033
538.88	0.004
539.228	0.0042
539.575	0.0019
539.922	0.0025
540.269	0.0019
540.617	0.0065
540.964	0.0028
541.311	0.001
541.658	-0.0008
542.005	0.0028
542.352	0.0053
542.699	0.0025
543.045	0.0007
543.392	0.0011
543.739	0.0006
544.086	0.0009
544.432	-0.0006
544.779	0.0025
545.126	0.0036
545.472	0.0053
545.819	0.0058
546.165	0.0037
546.512	0.0036
546.858	0.0016
547.204	0.0008
547.55	-0.0003
547.897	0.0011
548.243	0.0029
548.589	0.003
548.935	0.0008
549.281	0.0001
549.627	-0.0014
549.973	-0.0007
550.319	-0.0007
550.665	0.0011
551.01	0.0022
551.356	0.0009
551.702	-0.0012
552.048	-0.0022
552.393	0.0004
552.739	-0.0002
553.084	-0.0013
553.43	-0.0009
553.775	0.0016
554.12	0.0042
554.466	0.0024
554.811	0.0004
555.156	-0.003
555.502	-0.0011
555.847	0.0009
556.192	0.0048
556.537	0.0023
556.882	0.0005
557.227	-0.0035
557.572	-0.0032
557.917	0.0013
558.261	0.0051
558.606	0.0086
558.951	0.0025
559.295	0.0008
559.64	-0.0031
559.985	0.0023
560.329	0.0037
560.674	0.0054
561.018	0.0038
561.363	0.0022
561.707	0.0009
562.051	0.0004
562.395	0.0024
562.74	0.0042
563.084	0.0062
563.428	0.0041
563.772	0.0044
564.116	0.0013
564.46	0.0004
564.804	-0.0019
565.148	-0.0055
565.492	-0.0047
565.835	-0.0039
566.179	0.0012
566.523	-0.0002
566.866	-0.0021
567.21	-0.0042
567.554	-0.0027
567.897	0.0027
568.24	0.0014
568.584	0.0026
568.927	-0.0008
569.271	0.0015
569.614	-0.0016
569.957	-0.0001
570.3	0.0004
570.643	0.0006
570.986	-0.0008
571.329	0.0012
571.672	0.0025
572.015	-0.0004
572.358	0.0007
572.701	-0.0005
573.044	0.0001
573.387	-0.0039
573.729	-0.002
574.072	-0.0006
574.414	-0.0022
574.757	-0.003
575.099	-0.0057
575.442	-0.0064
575.784	-0.005
576.127	-0.0023
576.469	-0.0005
576.811	-0.0006
577.153	-0.0007
577.496	-0.0023
577.838	-0.0022
578.18	-0.0058
578.522	-0.0067
578.864	-0.0105
579.206	-0.0055
579.548	-0.003
579.889	-0.004
580.231	-0.0017
580.573	0.0002
580.915	-0.0011
581.256	-0.0056
581.598	-0.0077
581.939	-0.0089
582.281	-0.0051
582.622	-0.0035
582.964	0.0016
583.305	0.0004
583.646	0.0008
583.988	0.0025
584.329	0.0015
584.67	-0.0038
585.011	-0.0073
585.352	-0.0092
585.693	-0.0045
586.034	-0.0042
586.375	-0.0035
586.716	-0.0027
587.057	-0
587.398	-0.0006
587.738	0.0018
588.079	0.0004
588.42	0.0011
588.76	-0.003
589.101	-0.0047
589.441	-0.0066
589.782	-0.0027
590.122	-0.0022
590.463	-0.0019
590.803	-0.0056
591.143	-0.0017
591.483	-0.0042
591.823	-0.0045
592.164	-0.0084
592.504	-0.0042
592.844	-0.0045
593.184	-0.0048
593.523	-0.0071
593.863	-0.0026
594.203	-0.0057
594.543	-0.0045
594.883	-0.0085
595.222	-0.0053
595.562	-0.0013
595.901	-0.0011
596.241	-0.003
596.58	-0.0057
596.92	-0.0067
597.259	-0.0055
597.599	-0.0034
597.938	-0.0018
598.277	-0.0001
598.616	-0.0032
598.955	-0.0015
599.295	-0.0023
599.634	-0.002
599.973	-0.0022
600.312	-0.0045
600.65	-0.0029
600.989	-0.0035
601.328	0.0028
601.667	0.0046
602.005	0.0005
602.344	-0.0065
602.683	-0.0091
603.021	-0.0081
603.36	-0.007
603.698	-0.0076
604.037	-0.0076
604.375	-0.0058
604.713	-0.0059
605.052	-0.0055
605.39	-0.0081
605.728	-0.0095
606.066	-0.0062
606.404	-0.0072
606.742	-0.006
607.08	-0.0061
607.418	-0.0054
607.756	-0.0036
608.094	-0.0059
608.431	-0.0047
608.769	-0.0032
609.107	-0.0054
609.444	-0.0047
609.782	-0.0085
610.12	-0.002
610.457	-0.0023
610.794	-0.0028
611.132	-0.0067
611.469	-0.0078
611.806	-0.0072
612.144	-0.0064
612.481	-0.0038
612.818	-0.0013
613.155	-0.0057
613.492	-0.0068
613.829	-0.0079
614.166	-0.0061
614.503	-0.0039
614.84	-0.007
615.176	-0.007
615.513	-0.0093
615.85	-0.0081
616.187	-0.0046
616.523	-0.0049
616.86	-0.0073
617.196	-0.0083
617.533	-0.0047
617.869	-0.003
618.205	-0.0042
618.542	-0.0053
618.878	-0.0075
619.214	-0.0053
619.55	-0.0084
619.886	-0.0048
620.222	-0.0073
620.558	-0.0061
620.894	-0.0015
621.23	-0.0022
621.566	-0.0048
621.902	-0.0094
622.238	-0.01
622.573	-0.0038
622.909	-0.0078
623.244	-0.0074
623.58	-0.011
623.916	-0.0112
624.251	-0.0095
624.586	-0.0062
624.922	-0.004
625.257	-0.0054
625.592	-0.009
625.927	-0.0055
626.263	-0.0072
626.598	-0.0087
626.933	-0.0108
627.268	-0.007
627.603	-0.0065
627.938	-0.0094
628.272	-0.0095
628.607	-0.0072
628.942	-0.007
629.277	-0.0067
629.611	-0.0085
629.946	-0.0015
630.281	-0.0058
630.615	-0.0044
630.949	-0.0095
631.284	-0.007
631.618	-0.0055
631.953	-0.0005
632.287	-0.0016
632.621	-0.0007
632.955	-0.0038
633.289	-0.0012
633.623	-0.0048
633.957	-0.0059
634.291	-0.0112
634.625	-0.009
634.959	-0.012
635.293	-0.0091
635.627	-0.0135
635.96	-0.0122
636.294	-0.0152
636.627	-0.014
636.961	-0.0117
637.294	-0.0123
637.628	-0.0115
637.961	-0.0102
638.295	-0.0085
638.628	-0.0099
638.961	-0.0093
639.294	-0.0087
639.628	-0.0047
639.961	-0.0063
640.294	-0.0021
640.627	-0.0057
640.96	-0.0089
641.293	-0.0136
641.625	-0.0119
641.958	-0.008
642.291	-0.0012
642.624	-0.0013
642.956	-0.0055
643.289	-0.0109
643.621	-0.0129
643.954	-0.0137
644.286	-0.0183
644.619	-0.0143
644.951	-0.0095
645.283	-0.0055
645.616	-0.0061
645.948	-0.0044
646.28	-0.0015
646.612	-0.0045
646.944	-0.0051
647.276	-0.0105
647.608	-0.0078
647.94	-0.0105
648.272	-0.005
648.603	-0.0067
648.935	-0.0072
649.267	-0.0099
649.598	-0.0091
649.93	-0.0088
650.261	-0.0069
650.593	-0.0032
650.924	0.0015
651.256	0.0005
651.587	-0.0035
651.918	-0.0043
652.25	-0.0082
652.581	-0.0125
652.912	-0.0135
653.243	-0.0112
653.574	-0.0066
653.905	-0.0087
654.236	-0.0093
654.567	-0.0089
654.897	-0.0069
655.228	-0.0044
655.559	-0.0044
655.89	-0.0063
656.22	-0.0079
656.551	-0.0076
656.881	-0.0073
657.212	-0.0108
657.542	-0.0114
657.872	-0.0112
658.203	-0.0061
658.533	0.0052
658.863	0.003
659.193	-0.0064
659.523	-0.0116
659.853	-0.0217
660.183	-0.0143
660.513	-0.0107
660.843	-0.0088
661.173	-0.009
661.503	-0.0098
661.833	-0.0062
662.162	-0.0061
662.492	-0.0049
662.822	-0.0075
663.151	-0.0093
663.481	-0.0085
663.81	-0.0115
664.139	-0.0056
664.469	-0.008
664.798	-0.0088
665.127	-0.0093
665.456	-0.0056
665.785	-0.0015
666.114	-0.0067
666.443	-0.0097
666.772	-0.0105
667.101	-0.0101
667.43	-0.0097
667.759	-0.0109
668.088	-0.0094
668.416	-0.009
668.745	-0.007
669.074	-0.0139
669.402	-0.0196
669.731	-0.0226
670.059	-0.0164
670.388	-0.008
670.716	-0.005
671.044	-0.002
671.372	-0.0023
671.701	-0.0043
672.029	-0.0067
672.357	-0.0094
672.685	-0.0085
673.013	-0.01
673.341	-0.007
673.669	-0.0101
673.996	-0.0105
674.324	-0.0127
674.652	-0.0089
674.98	-0.0081
675.307	-0.0092
675.635	-0.0141
675.962	-0.0106
676.29	-0.0096
676.617	-0.005
676.945	-0.0087
677.272	-0.0074
677.599	-0.0068
677.926	-0.0063
678.253	-0.0047
678.581	-0.0075
678.908	-0.0103
679.235	-0.0115
679.561	-0.0078
679.888	-0.0054
680.215	-0.0053
680.542	-0.0061
680.869	-0.0091
681.195	-0.0108
681.522	-0.0103
681.849	-0.0059
682.175	-0.006
682.502	-0.0085
682.828	-0.0079
683.154	-0.0092
683.481	-0.0052
683.807	-0.0077
684.133	-0.0086
684.459	-0.0099
684.785	-0.0107
685.111	-0.0126
685.437	-0.0169
685.763	-0.0195
686.089	-0.0157
686.415	-0.0137
686.741	-0.009
687.067	-0.0073
687.392	-0.0068
687.718	-0.0086
688.043	-0.0093
688.369	-0.0123
688.694	-0.0101
689.02	-0.0143
689.345	-0.0072
689.67	-0.0104
689.996	-0.0055
690.321	-0.0098
690.646	-0.0101
690.971	-0.0144
691.296	-0.0115
691.621	-0.0124
691.946	-0.006
692.271	-0.0103
692.596	-0.0032
692.921	-0.0042
693.245	-0.0002
693.57	-0.0051
693.895	-0.0021
694.219	-0.0065
694.544	-0.0083
694.868	-0.0113
695.193	-0.0126
695.517	-0.0116
695.841	-0.0119
696.166	-0.0101
696.49	-0.0092
696.814	-0.0101
697.138	-0.0107
697.462	-0.0109
697.786	-0.0121
698.11	-0.0147
698.434	-0.0131
698.758	-0.0153
699.081	-0.013
699.405	-0.0132
699.729	-0.0097
700.052	-0.0134
700.376	-0.0118
700.7	-0.013
701.023	-0.0121
701.346	-0.0154
701.67	-0.013
701.993	-0.0129
702.316	-0.0148
702.639	-0.0137
702.963	-0.0161
703.286	-0.0098
703.609	-0.0127
703.932	-0.0098
704.255	-0.0103
704.578	-0.0111
704.9	-0.0088
705.223	-0.01
705.546	-0.0081
705.868	-0.0102
706.191	-0.0105
706.514	-0.012
706.836	-0.0124
707.159	-0.0112
707.481	-0.0092
707.803	-0.0073
708.126	-0.0083
708.448	-0.013
708.77	-0.0107
709.092	-0.0092
709.414	-0.0069
709.736	-0.0062
710.058	-0.0111
710.38	-0.013
710.702	-0.014
711.024	-0.0126
711.345	-0.0094
711.667	-0.0112
711.989	-0.0093
712.31	-0.0083
712.632	-0.009
712.953	-0.0079
713.275	-0.0068
713.596	-0.001
713.917	-0.0028
714.239	-0.0098
714.56	-0.0178
714.881	-0.0176
715.202	-0.0127
715.523	-0.0071
715.844	-0.0065
716.165	-0.008
716.486	-0.0099
716.807	-0.013
717.128	-0.0131
717.448	-0.0145
717.769	-0.0127
718.09	-0.0054
718.41	-0.0044
718.731	-0.0034
719.051	-0.0099
719.372	-0.0068
719.692	-0.0063
720.012	-0.0036
720.332	-0.0044
720.653	-0.005
720.973	-0.006
721.293	-0.0077
721.613	-0.009
721.933	-0.0052
722.253	-0.0054
722.573	-0.0043
722.892	-0.0128
723.212	-0.0158
723.532	-0.0175
723.851	-0.0144
724.171	-0.0121
724.491	-0.0142
724.81	-0.0145
725.129	-0.0096
725.449	-0.0081
725.768	-0.0114
726.087	-0.0175
726.407	-0.0145
726.726	-0.0097
727.045	-0.0068
727.364	-0.0112
727.683	-0.0069
728.002	-0.0078
728.321	-0.0045
728.64	-0.0105
728.958	-0.0086
729.277	-0.0078
729.596	-0.0056
729.914	-0.0077
730.233	-0.0094
730.551	-0.0143
730.87	-0.0168
731.188	-0.0155
731.507	-0.0122
731.825	-0.0118
732.143	-0.0153
732.461	-0.013
732.779	-0.0103
733.097	-0.0116
733.415	-0.0164
733.733	-0.0149
734.051	-0.0137
734.369	-0.0106
734.687	-0.0126
735.005	-0.0099
735.322	-0.0122
735.64	-0.0139
735.957	-0.0107
736.275	-0.0082
736.592	-0.0053
736.91	-0.0096
737.227	-0.0087
737.544	-0.0107
737.862	-0.006
738.179	-0.0066
738.496	-0.0018
738.813	-0.0101
739.13	-0.0136
739.447	-0.0155
739.764	-0.0141
740.081	-0.0163
740.398	-0.0188
740.714	-0.0153
741.031	-0.0116
741.348	-0.0106
741.664	-0.0112
741.981	-0.007
742.297	-0.0055
742.614	-0.0105
742.93	-0.0152
743.246	-0.0199
743.563	-0.018
743.879	-0.0231
744.195	-0.0196
744.511	-0.0158
744.827	-0.0089
745.143	-0.0142
745.459	-0.0143
745.775	-0.015
746.091	-0.0091
746.406	-0.0106
746.722	-0.0123
747.038	-0.0155
747.353	-0.0142
747.669	-0.0129
747.984	-0.0181
748.3	-0.0191
748.615	-0.0255
748.93	-0.0162
749.246	-0.015
749.561	-0.0096
749.876	-0.0127
750.191	-0.0158
750.506	-0.0151
750.821	-0.014
751.136	-0.0157
751.451	-0.0128
751.766	-0.0157
752.08	-0.0111
752.395	-0.0124
752.71	-0.0118
753.024	-0.0142
753.339	-0.0115
753.653	-0.0115
753.968	-0.0112
754.282	-0.0152
754.596	-0.0118
754.911	-0.0097
755.225	-0.0049
755.539	-0.0109
755.853	-0.0104
756.167	-0.0123
756.481	-0.0098
756.795	-0.0145
757.109	-0.0145
757.423	-0.0186
757.736	-0.018
758.05	-0.02
758.364	-0.0174
758.677	-0.0136
758.991	-0.0121
759.304	-0.0127
759.618	-0.0132
759.931	-0.0149
760.244	-0.0147
760.558	-0.0164
760.871	-0.0176
761.184	-0.0158
761.497	-0.0102
761.81	-0.0085
762.123	-0.0119
762.436	-0.0162
762.749	-0.015
763.062	-0.0107
763.374	-0.0121
763.687	-0.0136
764	-0.0146
764.312	-0.0097
764.625	-0.0075
764.937	-0.0091
765.25	-0.0099
765.562	-0.0093
765.874	-0.0077
766.186	-0.0141
766.499	-0.0149
766.811	-0.0168
767.123	-0.0157
767.435	-0.017
767.747	-0.0165
768.059	-0.0154
768.37	-0.0165
768.682	-0.0182
768.994	-0.0197
769.306	-0.02
769.617	-0.0154
769.929	-0.0112
770.24	-0.0075
770.552	-0.0145
770.863	-0.0207
771.174	-0.0203
771.486	-0.0141
771.797	-0.0115
772.108	-0.0133
772.419	-0.014
772.73	-0.0162
773.041	-0.015
773.352	-0.0147
773.663	-0.0135
773.974	-0.0122
774.285	-0.0173
774.595	-0.0151
774.906	-0.018
775.217	-0.0139
775.527	-0.0138
775.838	-0.0132
776.148	-0.0121
776.458	-0.0116
776.769	-0.0125
777.079	-0.0156
777.389	-0.0199
777.699	-0.0194
778.009	-0.0184
778.319	-0.021
778.629	-0.0156
778.939	-0.015
779.249	-0.0069
779.559	-0.0133
779.869	-0.0109
780.178	-0.0136
780.488	-0.0156
780.798	-0.0198
781.107	-0.0178
781.417	-0.0154
781.726	-0.0166
782.035	-0.0192
782.345	-0.0176
782.654	-0.0184
782.963	-0.016
783.272	-0.0177
783.581	-0.0169
783.89	-0.0154
784.199	-0.0133
784.508	-0.0161
784.817	-0.0246
785.126	-0.0286
785.434	-0.0196
785.743	-0.0153
786.052	-0.0129
786.36	-0.0231
786.669	-0.0223
786.977	-0.0255
787.285	-0.0156
787.594	-0.0128
787.902	-0.007
788.21	-0.0099
788.518	-0.0101
788.826	-0.0103
789.135	-0.0108
789.442	-0.0168
789.75	-0.0158
790.058	-0.0194
790.366	-0.0153
790.674	-0.0189
790.981	-0.0128
791.289	-0.0124
791.597	-0.0171
791.904	-0.0246
792.212	-0.0271
792.519	-0.0217
792.826	-0.014
793.134	-0.0102
793.441	-0.0089
793.748	-0.0071
794.055	-0.0094
794.362	-0.0146
794.669	-0.0218
794.976	-0.0218
795.283	-0.0183
795.59	-0.0117
795.897	-0.0093
796.203	-0.0111
796.51	-0.0124
796.817	-0.014
797.123	-0.0138
797.43	-0.015
797.736	-0.0154
798.042	-0.0178
798.349	-0.0162
798.655	-0.0148
798.961	-0.0108
799.267	-0.0118
799.573	-0.0128
799.879	-0.0167
800.185	-0.0172
800.491	-0.0144
800.797	-0.0113
801.103	-0.0113
801.408	-0.0116
801.714	-0.0099
802.02	-0.0103
802.325	-0.0101
802.631	-0.0169
802.936	-0.0212
803.242	-0.0257
803.547	-0.0275
803.852	-0.0238
804.157	-0.0181
804.462	-0.0165
804.768	-0.0132
805.073	-0.0147
805.378	-0.0088
805.682	-0.0135
805.987	-0.0184
806.292	-0.0154
806.597	-0.0104
806.902	-0.0113
807.206	-0.0157
807.511	-0.0162
807.815	-0.0157
808.12	-0.0162
808.424	-0.0193
808.728	-0.0176
809.033	-0.0151
809.337	-0.0178
809.641	-0.0168
809.945	-0.0173
810.249	-0.014
810.553	-0.0159
810.857	-0.0167
811.161	-0.0173
811.465	-0.0128
811.768	-0.0144
812.072	-0.0171
812.376	-0.02
812.679	-0.0211
812.983	-0.0153
813.286	-0.0188
813.59	-0.019
813.893	-0.0248
814.196	-0.0149
814.499	-0.013
814.803	-0.0095
815.106	-0.0206
815.409	-0.0245
815.712	-0.0238
816.015	-0.0179
816.318	-0.0149
816.62	-0.0153
816.923	-0.0152
817.226	-0.0163
817.528	-0.0175
817.831	-0.0191
818.133	-0.0211
818.436	-0.0238
818.738	-0.022
819.041	-0.0215
819.343	-0.0119
819.645	-0.0142
819.947	-0.0091
820.249	-0.0201
820.551	-0.02
820.853	-0.0248
821.155	-0.0206
821.457	-0.0151
821.759	-0.0125
822.061	-0.0089
822.362	-0.0133
822.664	-0.0178
822.966	-0.016
823.267	-0.0145
823.569	-0.0127
823.87	-0.0262
824.171	-0.0247
824.473	-0.0204
824.774	-0.0065
825.075	-0.0076
825.376	-0.0081
825.677	-0.0091
825.978	-0.0111
826.279	-0.0135
826.58	-0.0132
826.881	-0.0144
827.181	-0.0084
827.482	-0.0115
827.783	-0.0104
828.083	-0.0221
828.384	-0.0242
828.684	-0.0227
828.985	-0.0178
829.285	-0.0216
829.585	-0.0272
829.885	-0.0203
830.185	-0.0208
830.486	-0.0139
830.786	-0.0138
831.086	-0.0039
831.385	-0.0148
831.685	-0.0304
831.985	-0.039
832.285	-0.0325
832.585	-0.0169
832.884	-0.0135
833.184	-0.0197
833.483	-0.0291
833.783	-0.0307
834.082	-0.0229
834.381	-0.0164
834.681	-0.0164
834.98	-0.0094
835.279	-0.0147
835.578	-0.0147
835.877	-0.0213
836.176	-0.0137
836.475	-0.0064
836.774	-0.0104
837.072	-0.0141
837.371	-0.0146
837.67	-0.0102
837.968	-0.0139
838.267	-0.0242
838.565	-0.0273
838.864	-0.0271
839.162	-0.0277
839.46	-0.0381
839.759	-0.0319
840.057	-0.0325
840.355	-0.0244
840.653	-0.0231
840.951	-0.0199
841.249	-0.017
841.547	-0.0199
841.845	-0.0176
842.142	-0.0017
842.44	-0.0098
842.738	-0.0161
843.035	-0.0349
843.333	-0.0258
843.63	-0.0264
843.928	-0.024
844.225	-0.0301
844.522	-0.0187
844.82	-0.026
845.117	-0.0196
845.414	-0.0179
845.711	-0.0014
846.008	-0.0067
846.305	-0.0266
846.602	-0.0333
846.898	-0.0246
847.195	-0.0191
847.492	-0.0215
847.788	-0.0285
848.085	-0.0182
848.382	-0.0146
848.678	-0.0258
848.974	-0.0282
849.271	-0.0307
849.567	-0.0222
849.863	-0.03
850.159	-0.0337
850.455	-0.021
850.751	-0.0165
851.047	-0.0099
851.343	-0.0274
851.639	-0.0301
851.935	-0.0464
852.23	-0.043
852.526	-0.0459
852.822	-0.0277
853.117	-0.025
853.413	-0.017
853.708	-0.0236
854.003	-0.0077
854.299	0.0026
854.594	0.0078
854.889	-0.0075
855.184	-0.0158
855.479	-0.007
855.774	-0.002
856.069	-0.0042
856.364	-0.017
856.659	-0.0161
856.954	0.0045
857.248	-0.0084
857.543	-0.0033
857.837	-0.0213
858.132	0.0048
858.426	-0.0093
858.721	-0.0255
859.015	-0.0498
859.309	-0.0562
859.604	-0.0394
859.898	-0.0161
860.192	0.0014
860.486	-0.0052
860.78	-0.0155
861.074	-0.0112
861.367	0.0056
861.661	0.023
861.955	0.0264
862.248	0.021
862.542	-0.0044
862.836	-0.012
863.129	-0.0287
863.422	-0.0195
863.716	-0.0179
864.009	0.012
864.302	0.0014
864.595	0.0028
864.889	-0.0142
865.182	-0.0135
865.475	-0.0357
865.767	-0.0513
866.06	-0.0444
866.353	-0.0354
866.646	-0.0146
866.938	-0.0217
867.231	-0.0242
867.524	-0.0356
867.816	-0.0162
868.109	0.0009
868.401	0.0015
868.693	-0.0292
868.985	-0.0391
869.278	-0.0459
869.57	-0.0431
869.862	-0.0714
870.154	-0.0741
870.446	-0.0749
870.738	-0.0751
871.029	-0.0825
871.321	-0.05
871.613	-0.0094
871.904	0.0186
872.196	-0.0017
872.487	0.0056
872.779	-0.0098
873.07	0.0018
873.362	0.0101
873.653	0.034
873.944	0.0038
874.235	-0.0397
874.526	-0.0582
874.817	-0.0262
875.108	-0.0118
875.399	0.0024
875.69	-0.0092
875.981	-0.0057
876.271	-0.0234
876.562	-0.0308
876.853	-0.0435
877.143	-0.0374
877.434	-0.0374
877.724	-0.0523
878.014	-0.0344
878.305	-0.0324
878.595	0.0179
878.885	-0.0238
879.175	-0.0107
879.465	-0.035
879.755	0.0085
880.045	0.0053
880.335	0.0041
880.624	-0.0126
880.914	-0.0126
