Data from 36SS03OI_072017_1b_Absorbance_17-42-07-034.txt Node
Date: Fri Jul 28 17:42:07 MDT 2017
User: Tank Lab
Spectrometer: FLMS01220
Trigger mode: 0
Integration Time (sec): 1.000000E-1
Scans to average: 10
Electric dark correction enabled: true
Nonlinearity correction enabled: false
Boxcar width: 1
XAxis mode: Wavelengths
Number of Pixels in Spectrum: 2048
>>>>>Begin Spectral Data<<<<<
179.47	0.8746
179.856	0.8746
180.241	-0
180.626	-0.779
181.011	0.3286
181.396	0.41
181.781	-0.1924
182.166	-0
182.551	0.4114
182.936	0.3312
183.321	0.7357
183.706	0.276
184.091	0.1669
184.476	-0
184.86	0.188
185.245	-0.3659
185.63	-0
186.015	-0
186.399	-0
186.784	-0
187.169	-0
187.553	-0
187.938	-0
188.322	-0.1007
188.707	-0.0618
189.091	-0.0109
189.475	0.0374
189.86	0.0571
190.244	0.0732
190.629	0.0721
191.013	0.1014
191.397	0.157
191.781	0.2015
192.165	0.231
192.55	0.2518
192.934	0.2662
193.318	0.2867
193.702	0.3021
194.086	0.3038
194.47	0.3068
194.854	0.2996
195.238	0.2954
195.622	0.2912
196.006	0.2884
196.389	0.2807
196.773	0.269
197.157	0.2631
197.541	0.2598
197.924	0.2525
198.308	0.2473
198.692	0.2394
199.075	0.2324
199.459	0.2201
199.843	0.2135
200.226	0.2092
200.61	0.2023
200.993	0.1966
201.376	0.1931
201.76	0.1882
202.143	0.1827
202.527	0.1768
202.91	0.1744
203.293	0.1735
203.676	0.1727
204.059	0.1679
204.443	0.1649
204.826	0.1604
205.209	0.1611
205.592	0.1595
205.975	0.1561
206.358	0.1544
206.741	0.1515
207.124	0.1565
207.507	0.1537
207.89	0.1545
208.273	0.1491
208.655	0.1479
209.038	0.1434
209.421	0.1399
209.804	0.1392
210.186	0.1402
210.569	0.1398
210.951	0.1391
211.334	0.136
211.717	0.1371
212.099	0.1318
212.482	0.1319
212.864	0.13
213.246	0.1345
213.629	0.1351
214.011	0.1365
214.393	0.1323
214.776	0.128
215.158	0.1245
215.54	0.1263
215.922	0.128
216.305	0.1275
216.687	0.1255
217.069	0.1228
217.451	0.123
217.833	0.1229
218.215	0.1225
218.597	0.121
218.979	0.1168
219.361	0.1153
219.742	0.1153
220.124	0.1175
220.506	0.1174
220.888	0.1137
221.27	0.1127
221.651	0.1108
222.033	0.1114
222.415	0.1087
222.796	0.1094
223.178	0.1067
223.559	0.1063
223.941	0.1034
224.322	0.1023
224.704	0.1006
225.085	0.1022
225.466	0.1023
225.848	0.1017
226.229	0.0991
226.61	0.0994
226.992	0.099
227.373	0.099
227.754	0.0977
228.135	0.0966
228.516	0.0958
228.897	0.0937
229.278	0.0929
229.659	0.0913
230.04	0.0914
230.421	0.0902
230.802	0.0896
231.183	0.0906
231.564	0.092
231.944	0.0918
232.325	0.0885
232.706	0.0876
233.087	0.0862
233.467	0.0864
233.848	0.0857
234.229	0.085
234.609	0.0851
234.99	0.0833
235.37	0.0848
235.751	0.0845
236.131	0.085
236.511	0.0848
236.892	0.0837
237.272	0.0829
237.652	0.0819
238.033	0.081
238.413	0.0801
238.793	0.0793
239.173	0.0793
239.553	0.0798
239.933	0.0792
240.313	0.0784
240.694	0.0757
241.074	0.0748
241.453	0.0747
241.833	0.0752
242.213	0.0743
242.593	0.0725
242.973	0.074
243.353	0.074
243.732	0.0751
244.112	0.0736
244.492	0.0732
244.872	0.0735
245.251	0.073
245.631	0.0725
246.01	0.0705
246.39	0.0702
246.769	0.0706
247.149	0.0717
247.528	0.073
247.908	0.0722
248.287	0.0715
248.666	0.0695
249.045	0.0691
249.425	0.068
249.804	0.0678
250.183	0.0683
250.562	0.068
250.941	0.067
251.32	0.0667
251.699	0.0675
252.078	0.0678
252.457	0.0668
252.836	0.0662
253.215	0.0668
253.594	0.0667
253.973	0.0667
254.352	0.0657
254.731	0.0649
255.109	0.0642
255.488	0.0645
255.867	0.0649
256.245	0.0651
256.624	0.0647
257.002	0.0648
257.381	0.0657
257.759	0.0643
258.138	0.0631
258.516	0.0625
258.895	0.0633
259.273	0.0639
259.651	0.0627
260.03	0.062
260.408	0.0619
260.786	0.0623
261.164	0.0627
261.542	0.0618
261.921	0.0611
262.299	0.0622
262.677	0.0621
263.055	0.0622
263.433	0.0596
263.811	0.0593
264.188	0.0579
264.566	0.0586
264.944	0.059
265.322	0.0599
265.7	0.059
266.077	0.0581
266.455	0.0566
266.833	0.0575
267.21	0.0569
267.588	0.0581
267.966	0.0575
268.343	0.0585
268.721	0.0578
269.098	0.0574
269.475	0.057
269.853	0.0569
270.23	0.0572
270.607	0.0555
270.985	0.0554
271.362	0.0535
271.739	0.0538
272.116	0.0542
272.494	0.0545
272.871	0.0557
273.248	0.0548
273.625	0.0535
274.002	0.0514
274.379	0.0505
274.756	0.0517
275.132	0.0514
275.509	0.0513
275.886	0.0505
276.263	0.0514
276.64	0.0518
277.016	0.0511
277.393	0.0513
277.77	0.0492
278.146	0.0487
278.523	0.047
278.899	0.0476
279.276	0.0471
279.652	0.0465
280.029	0.0468
280.405	0.0469
280.782	0.0466
281.158	0.0478
281.534	0.0468
281.91	0.0473
282.287	0.0457
282.663	0.0481
283.039	0.0488
283.415	0.0477
283.791	0.0456
284.167	0.0438
284.543	0.0444
284.919	0.0435
285.295	0.0437
285.671	0.0424
286.047	0.0425
286.423	0.0415
286.799	0.0428
287.174	0.0429
287.55	0.0428
287.926	0.0426
288.301	0.0428
288.677	0.0429
289.053	0.042
289.428	0.0409
289.804	0.0408
290.179	0.041
290.555	0.0422
290.93	0.0424
291.305	0.0413
291.681	0.0418
292.056	0.0423
292.431	0.0415
292.806	0.0396
293.182	0.0375
293.557	0.038
293.932	0.0385
294.307	0.0395
294.682	0.0391
295.057	0.0381
295.432	0.0367
295.807	0.0369
296.182	0.0384
296.557	0.0386
296.932	0.038
297.306	0.0377
297.681	0.0371
298.056	0.0382
298.43	0.036
298.805	0.0343
299.18	0.0334
299.554	0.0334
299.929	0.0362
300.303	0.0348
300.678	0.034
301.052	0.0342
301.427	0.0344
301.801	0.0361
302.175	0.0348
302.55	0.0353
302.924	0.0334
303.298	0.033
303.672	0.0327
304.046	0.0331
304.421	0.0336
304.795	0.0324
305.169	0.0326
305.543	0.0294
305.917	0.0312
306.291	0.0315
306.664	0.0336
307.038	0.0331
307.412	0.0319
307.786	0.0318
308.16	0.0311
308.533	0.0306
308.907	0.0305
309.281	0.0316
309.654	0.032
310.028	0.0321
310.401	0.0306
310.775	0.0304
311.148	0.0302
311.522	0.0301
311.895	0.0295
312.268	0.0283
312.642	0.0278
313.015	0.0276
313.388	0.0274
313.761	0.0281
314.135	0.0283
314.508	0.0295
314.881	0.0286
315.254	0.0282
315.627	0.0282
316	0.029
316.373	0.0281
316.746	0.0272
317.118	0.0269
317.491	0.028
317.864	0.0283
318.237	0.0264
318.61	0.0244
318.982	0.0236
319.355	0.0246
319.727	0.0252
320.1	0.0251
320.473	0.025
320.845	0.0271
321.218	0.0273
321.59	0.0273
321.962	0.0258
322.335	0.026
322.707	0.0252
323.079	0.0252
323.452	0.0253
323.824	0.0276
324.196	0.0278
324.568	0.0266
324.94	0.0238
325.312	0.0262
325.684	0.0259
326.056	0.0261
326.428	0.023
326.8	0.0217
327.172	0.0218
327.544	0.02
327.915	0.0221
328.287	0.0223
328.659	0.0242
329.031	0.0239
329.402	0.022
329.774	0.0206
330.145	0.0192
330.517	0.0192
330.888	0.0186
331.26	0.0201
331.631	0.0213
332.003	0.0224
332.374	0.021
332.745	0.02
333.117	0.0188
333.488	0.0191
333.859	0.0209
334.23	0.021
334.601	0.0208
334.972	0.0201
335.343	0.0198
335.714	0.018
336.085	0.0168
336.456	0.0181
336.827	0.0192
337.198	0.0199
337.569	0.0185
337.94	0.0177
338.31	0.0162
338.681	0.0155
339.052	0.0177
339.422	0.0191
339.793	0.0196
340.164	0.018
340.534	0.0175
340.905	0.0166
341.275	0.0165
341.645	0.0155
342.016	0.017
342.386	0.0175
342.756	0.0197
343.127	0.0193
343.497	0.0175
343.867	0.016
344.237	0.0163
344.607	0.016
344.977	0.0161
345.347	0.0155
345.717	0.0158
346.087	0.0161
346.457	0.0177
346.827	0.0188
347.197	0.0177
347.567	0.0157
347.936	0.016
348.306	0.0179
348.676	0.0193
349.046	0.0185
349.415	0.0172
349.785	0.017
350.154	0.0169
350.524	0.0179
350.893	0.0163
351.263	0.0169
351.632	0.0155
352.001	0.0155
352.371	0.0153
352.74	0.0143
353.109	0.0154
353.478	0.0152
353.847	0.014
354.217	0.0143
354.586	0.0122
354.955	0.0152
355.324	0.0143
355.693	0.0174
356.062	0.0169
356.43	0.0175
356.799	0.0147
357.168	0.0137
357.537	0.0132
357.906	0.0139
358.274	0.0139
358.643	0.0124
359.011	0.0116
359.38	0.0118
359.749	0.012
360.117	0.0127
360.486	0.0142
360.854	0.0145
361.222	0.0135
361.591	0.012
361.959	0.0111
362.327	0.0122
362.695	0.0108
363.064	0.0113
363.432	0.0113
363.8	0.0109
364.168	0.0098
364.536	0.0095
364.904	0.009
365.272	0.0099
365.64	0.0086
366.008	0.0099
366.376	0.0089
366.743	0.0081
367.111	0.0092
367.479	0.0094
367.847	0.0125
368.214	0.0125
368.582	0.0124
368.949	0.012
369.317	0.01
369.684	0.0089
370.052	0.0073
370.419	0.0088
370.787	0.0118
371.154	0.0131
371.521	0.0126
371.889	0.0116
372.256	0.0108
372.623	0.0105
372.99	0.0099
373.357	0.0103
373.724	0.0098
374.091	0.0098
374.458	0.008
374.825	0.0089
375.192	0.0071
375.559	0.0078
375.926	0.0052
376.293	0.0061
376.659	0.0075
377.026	0.009
377.393	0.0083
377.759	0.0075
378.126	0.0086
378.492	0.0094
378.859	0.0079
379.225	0.0066
379.592	0.0077
379.958	0.0095
380.325	0.0085
380.691	0.0081
381.057	0.0075
381.423	0.0073
381.79	0.0069
382.156	0.005
382.522	0.0059
382.888	0.0056
383.254	0.0089
383.62	0.01
383.986	0.0109
384.352	0.0073
384.718	0.0052
385.084	0.0033
385.449	0.0037
385.815	0.0041
386.181	0.0065
386.547	0.008
386.912	0.0092
387.278	0.0091
387.643	0.008
388.009	0.0091
388.374	0.0073
388.74	0.0077
389.105	0.0046
389.471	0.0056
389.836	0.0053
390.201	0.0077
390.566	0.0091
390.932	0.0101
391.297	0.008
391.662	0.0053
392.027	0.0042
392.392	0.0037
392.757	0.0033
393.122	0.0016
393.487	0.0027
393.852	0.0018
394.217	0.0028
394.582	0.0048
394.946	0.0064
395.311	0.0064
395.676	0.0042
396.04	0.005
396.405	0.0059
396.77	0.0062
397.134	0.0045
397.499	0.0049
397.863	0.0039
398.227	0.0062
398.592	0.0047
398.956	0.0057
399.32	0.0045
399.685	0.005
400.049	0.0066
400.413	0.0055
400.777	0.004
401.141	0.0031
401.505	0.0042
401.869	0.0053
402.233	0.0037
402.597	0.003
402.961	0.0033
403.325	0.0057
403.689	0.0064
404.053	0.0069
404.416	0.0061
404.78	0.0058
405.144	0.0046
405.507	0.0056
405.871	0.0051
406.234	0.0057
406.598	0.0032
406.961	0.0017
407.325	0.0012
407.688	0.001
408.051	0.0042
408.415	0.0067
408.778	0.0065
409.141	0.0063
409.504	0.0049
409.867	0.0049
410.23	0.0048
410.593	0.0032
410.956	0.0029
411.319	0.0038
411.682	0.0017
412.045	0.0023
412.408	-0.0013
412.771	0.0019
413.134	0.0022
413.496	0.0022
413.859	0.0024
414.222	0.004
414.584	0.0074
414.947	0.0071
415.309	0.0044
415.672	0.0033
416.034	0.0037
416.396	0.0036
416.759	0.0025
417.121	0.0024
417.483	0.0019
417.846	0.0017
418.208	0.0016
418.57	0.0036
418.932	0.0017
419.294	0.0002
419.656	0.0001
420.018	0.0017
420.38	0.0032
420.742	0.0021
421.104	0.0031
421.466	0.0017
421.827	0.001
422.189	-0.0013
422.551	-0.0003
422.912	0.0008
423.274	0.0031
423.636	0.0022
423.997	0.0021
424.359	0.0022
424.72	0.0041
425.081	0.0057
425.443	0.0063
425.804	0.0054
426.165	0.006
426.527	0.0045
426.888	0.0034
427.249	0.0031
427.61	0.0045
427.971	0.0049
428.332	0.0037
428.693	0.0012
429.054	0.0005
429.415	-0.0015
429.776	-0.0023
430.137	-0.0016
430.498	-0.0006
430.858	0.0025
431.219	0.0028
431.58	0.0043
431.94	0.0044
432.301	0.0047
432.661	0.0007
433.022	-0.0013
433.382	-0.0025
433.743	0.0017
434.103	0.0029
434.463	0.0022
434.824	-0.0009
435.184	0.0008
435.544	0.0041
435.904	0.0055
436.264	0.0039
436.624	0.003
436.985	0.0029
437.345	0.0036
437.704	0.0033
438.064	0.0036
438.424	0.0021
438.784	0.0002
439.144	0.0013
439.504	-0.0003
439.863	-0.0004
440.223	-0.0003
440.583	-0.0006
440.942	0.0011
441.302	-0.0003
441.661	-0.0011
442.021	-0.0001
442.38	-0.0001
442.739	0.0025
443.099	0.0013
443.458	0.0031
443.817	0.0024
444.176	0.0022
444.536	0.0004
444.895	0.0015
445.254	0.0004
445.613	0.0015
445.972	0.0009
446.331	0.0009
446.69	-0.0018
447.049	-0.0036
447.407	-0.003
447.766	-0.0009
448.125	0.0012
448.484	0.0009
448.842	-0.0001
449.201	-0.0001
449.559	-0.0008
449.918	-0.0004
450.276	-0.0002
450.635	0.0028
450.993	0.0012
451.352	0.0023
451.71	0.0004
452.068	0.0006
452.426	-0.0012
452.785	-0.0001
453.143	0.0024
453.501	0.0026
453.859	0.0006
454.217	-0.0004
454.575	-0.0022
454.933	-0.0021
455.291	0.0004
455.649	0.0016
456.006	0.0005
456.364	-0.0002
456.722	0.0003
457.079	0.002
457.437	0.001
457.795	0.0025
458.152	0.0044
458.51	0.0041
458.867	0.0045
459.225	0.0017
459.582	0.0018
459.939	0.0009
460.297	0.0036
460.654	0.0044
461.011	0.0023
461.368	0.0007
461.725	-0.0019
462.082	-0.0004
462.44	-0.002
462.797	-0.0021
463.153	-0.0008
463.51	0.0013
463.867	0.0033
464.224	0.0019
464.581	0.0012
464.938	0.0013
465.294	0.0027
465.651	0.0054
466.008	0.0036
466.364	0.0042
466.721	0.0007
467.077	-0.0018
467.434	-0.0043
467.79	-0.0007
468.146	0.0018
468.503	0.0038
468.859	0.0001
469.215	-0.0006
469.571	-0.004
469.927	-0.0023
470.284	-0.0026
470.64	-0.0004
470.996	-0.0025
471.352	-0.0013
471.707	-0.0022
472.063	0.0015
472.419	0.0035
472.775	0.0051
473.131	0.0039
473.486	0.0006
473.842	0.0001
474.198	0.0011
474.553	0.0021
474.909	0.0028
475.264	0.0027
475.62	0.0055
475.975	0.005
476.331	0.004
476.686	0.0027
477.041	0.003
477.396	0.001
477.752	0.0012
478.107	0.0013
478.462	0.0003
478.817	-0.001
479.172	-0.0017
479.527	-0.0016
479.882	-0.0022
480.237	-0.0034
480.591	-0.0018
480.946	-0.0009
481.301	-0.0004
481.656	0.0014
482.01	0.0009
482.365	0.0016
482.72	0.0005
483.074	0.0013
483.429	-0.0006
483.783	-0.0018
484.137	-0.0022
484.492	-0.0006
484.846	0.0013
485.2	0.0019
485.555	0.0031
485.909	0.001
486.263	-0.0002
486.617	-0.0016
486.971	0.0003
487.325	0.002
487.679	0.0014
488.033	0.0015
488.387	0.0015
488.741	0.0029
489.094	-0.0004
489.448	-0.0019
489.802	-0.0011
490.156	-0.0006
490.509	0.0012
490.863	-0.001
491.216	0.001
491.57	-0.0029
491.923	-0.0019
492.277	-0.0032
492.63	-0.0013
492.983	-0.0019
493.337	-0.0011
493.69	-0.0009
494.043	-0.0024
494.396	-0.0017
494.749	-0.0018
495.102	-0.0016
495.455	-0.0029
495.808	-0.0025
496.161	-0.0006
496.514	0.0001
496.867	0
497.22	-0.0008
497.572	-0.0018
497.925	-0.0012
498.278	-0.0032
498.63	-0.0013
498.983	-0.0017
499.335	-0.0001
499.688	-0.0028
500.04	-0.0047
500.393	-0.0048
500.745	-0.0039
501.097	-0.0032
501.449	-0.002
501.802	-0.0027
502.154	-0.0022
502.506	-0.0034
502.858	-0.0027
503.21	-0.0016
503.562	-0.0015
503.914	0.0005
504.266	-0.0001
504.618	-0.0012
504.969	-0.002
505.321	-0.0018
505.673	-0.0021
506.025	-0.002
506.376	-0.0025
506.728	-0.0006
507.079	-0.001
507.431	-0.0025
507.782	-0.0037
508.134	-0.0041
508.485	-0.0013
508.836	-0.0009
509.188	-0.0019
509.539	-0.0036
509.89	-0.0029
510.241	-0.0024
510.592	-0.0017
510.943	-0.0025
511.294	-0.0018
511.645	-0.0032
511.996	-0.0032
512.347	-0.0043
512.698	-0.0051
513.049	-0.0058
513.399	-0.0038
513.75	-0.0018
514.101	-0.0015
514.451	-0.0012
514.802	-0.0029
515.152	-0.0046
515.503	-0.0057
515.853	-0.0045
516.203	-0.0025
516.554	-0.0029
516.904	-0.002
517.254	-0.0014
517.604	-0.0011
517.955	-0.0019
518.305	-0.0055
518.655	-0.0065
519.005	-0.0068
519.355	-0.0051
519.705	-0.0084
520.055	-0.0096
520.404	-0.0091
520.754	-0.0051
521.104	-0.0042
521.454	-0.0023
521.803	-0.0022
522.153	-0.0021
522.502	-0.0047
522.852	-0.0045
523.201	-0.0037
523.551	-0.002
523.9	-0.0045
524.249	-0.0057
524.599	-0.0055
524.948	-0.0043
525.297	-0.003
525.646	-0.0061
525.995	-0.007
526.344	-0.007
526.694	-0.0043
527.042	-0.0038
527.391	-0.0059
527.74	-0.0059
528.089	-0.0042
528.438	-0.0016
528.787	-0.003
529.135	-0.0073
529.484	-0.0097
529.833	-0.0071
530.181	-0.0056
530.53	-0.0061
530.878	-0.0079
531.227	-0.0039
531.575	-0.0032
531.923	-0.0049
532.271	-0.0073
532.62	-0.0056
532.968	-0.006
533.316	-0.0054
533.664	-0.0039
534.012	-0.0017
534.36	-0.0008
534.708	-0.0046
535.056	-0.0078
535.404	-0.0064
535.752	-0.0026
536.1	-0.0007
536.447	-0.0042
536.795	-0.006
537.143	-0.0067
537.49	-0.0047
537.838	-0.0048
538.185	-0.0031
538.533	-0.0051
538.88	-0.0052
539.228	-0.0043
539.575	-0.0053
539.922	-0.0051
540.269	-0.0066
540.617	-0.0044
540.964	-0.0081
541.311	-0.0086
541.658	-0.0092
542.005	-0.0057
542.352	-0.0052
542.699	-0.0071
543.045	-0.0088
543.392	-0.0089
543.739	-0.009
544.086	-0.009
544.432	-0.0103
544.779	-0.0095
545.126	-0.0079
545.472	-0.0087
545.819	-0.0083
546.165	-0.0094
546.512	-0.0083
546.858	-0.0087
547.204	-0.0096
547.55	-0.0101
547.897	-0.0088
548.243	-0.0107
548.589	-0.0071
548.935	-0.0066
549.281	-0.0037
549.627	-0.0058
549.973	-0.0053
550.319	-0.0037
550.665	-0.0047
551.01	-0.0057
551.356	-0.0069
551.702	-0.005
552.048	-0.0049
552.393	-0.0046
552.739	-0.007
553.084	-0.0056
553.43	-0.0074
553.775	-0.0065
554.12	-0.0062
554.466	-0.0067
554.811	-0.0073
555.156	-0.0113
555.502	-0.0112
555.847	-0.0096
556.192	-0.0043
556.537	-0.0034
556.882	-0.0041
557.227	-0.0077
557.572	-0.0072
557.917	-0.0056
558.261	-0.0043
558.606	-0.0028
558.951	-0.0072
559.295	-0.0085
559.64	-0.0094
559.985	-0.0047
560.329	-0.0034
560.674	-0.004
561.018	-0.0058
561.363	-0.0077
561.707	-0.007
562.051	-0.0082
562.395	-0.0072
562.74	-0.0079
563.084	-0.0075
563.428	-0.0071
563.772	-0.0066
564.116	-0.008
564.46	-0.0088
564.804	-0.0091
565.148	-0.0088
565.492	-0.0074
565.835	-0.0059
566.179	-0.0033
566.523	-0.0043
566.866	-0.0057
567.21	-0.0084
567.554	-0.0074
567.897	-0.0073
568.24	-0.005
568.584	-0.0064
568.927	-0.007
569.271	-0.008
569.614	-0.0109
569.957	-0.0092
570.3	-0.0088
570.643	-0.0069
570.986	-0.0082
571.329	-0.006
571.672	-0.0041
572.015	-0.0048
572.358	-0.004
572.701	-0.0036
573.044	-0.0058
573.387	-0.0085
573.729	-0.0094
574.072	-0.009
574.414	-0.0104
574.757	-0.0081
575.099	-0.0087
575.442	-0.0086
575.784	-0.0088
576.127	-0.0073
576.469	-0.0072
576.811	-0.008
577.153	-0.0061
577.496	-0.0063
577.838	-0.0055
578.18	-0.0079
578.522	-0.0094
578.864	-0.0136
579.206	-0.0113
579.548	-0.0106
579.889	-0.0127
580.231	-0.0111
580.573	-0.0067
580.915	-0.0055
581.256	-0.0101
581.598	-0.0127
581.939	-0.0141
582.281	-0.0084
582.622	-0.0083
582.964	-0.0044
583.305	-0.0077
583.646	-0.0055
583.988	-0.0043
584.329	-0.0045
584.67	-0.0084
585.011	-0.011
585.352	-0.0126
585.693	-0.0086
586.034	-0.0078
586.375	-0.0076
586.716	-0.0084
587.057	-0.0082
587.398	-0.0073
587.738	-0.0036
588.079	-0.0051
588.42	-0.0035
588.76	-0.0086
589.101	-0.0085
589.441	-0.0107
589.782	-0.0084
590.122	-0.0086
590.463	-0.0077
590.803	-0.0088
591.143	-0.0068
591.483	-0.0093
591.823	-0.01
592.164	-0.0118
592.504	-0.0103
592.844	-0.0112
593.184	-0.0125
593.523	-0.0117
593.863	-0.0089
594.203	-0.0097
594.543	-0.0092
594.883	-0.0115
595.222	-0.0097
595.562	-0.0075
595.901	-0.007
596.241	-0.0089
596.58	-0.0105
596.92	-0.0107
597.259	-0.0089
597.599	-0.0067
597.938	-0.007
598.277	-0.0035
598.616	-0.009
598.955	-0.0086
599.295	-0.0145
599.634	-0.0127
599.973	-0.0109
600.312	-0.0093
600.65	-0.0088
600.989	-0.0098
601.328	-0.0063
601.667	-0.0036
602.005	-0.0055
602.344	-0.0088
602.683	-0.0096
603.021	-0.0108
603.36	-0.0109
603.698	-0.0123
604.037	-0.0107
604.375	-0.0093
604.713	-0.0089
605.052	-0.0083
605.39	-0.0107
605.728	-0.0117
606.066	-0.0103
606.404	-0.0106
606.742	-0.0105
607.08	-0.0102
607.418	-0.0099
607.756	-0.01
608.094	-0.0095
608.431	-0.0072
608.769	-0.0053
609.107	-0.0091
609.444	-0.0098
609.782	-0.0127
610.12	-0.0085
610.457	-0.0082
610.794	-0.0084
611.132	-0.0083
611.469	-0.0097
611.806	-0.0095
612.144	-0.0122
612.481	-0.0125
612.818	-0.0089
613.155	-0.0111
613.492	-0.0069
613.829	-0.0074
614.166	-0.0047
614.503	-0.0081
614.84	-0.0107
615.176	-0.0119
615.513	-0.0097
615.85	-0.0096
616.187	-0.0051
616.523	-0.0089
616.86	-0.0128
617.196	-0.0166
617.533	-0.012
617.869	-0.0082
618.205	-0.0088
618.542	-0.011
618.878	-0.0116
619.214	-0.0087
619.55	-0.0088
619.886	-0.0075
620.222	-0.0108
620.558	-0.0109
620.894	-0.0088
621.23	-0.0066
621.566	-0.0094
621.902	-0.012
622.238	-0.0152
622.573	-0.005
622.909	-0.0086
623.244	-0.0067
623.58	-0.0133
623.916	-0.0133
624.251	-0.0095
624.586	-0.0062
624.922	-0.0084
625.257	-0.0112
625.592	-0.0135
625.927	-0.0074
626.263	-0.0089
626.598	-0.0107
626.933	-0.0116
627.268	-0.0088
627.603	-0.0095
627.938	-0.0141
628.272	-0.0165
628.607	-0.0161
628.942	-0.0115
629.277	-0.0117
629.611	-0.0115
629.946	-0.0108
630.281	-0.0114
630.615	-0.0105
630.949	-0.0123
631.284	-0.0137
631.618	-0.0104
631.953	-0.0117
632.287	-0.0101
632.621	-0.0143
632.955	-0.0118
633.289	-0.0077
633.623	-0.005
633.957	-0.0055
634.291	-0.0122
634.625	-0.0116
634.959	-0.0147
635.293	-0.0101
635.627	-0.0139
635.96	-0.0136
636.294	-0.0184
636.627	-0.019
636.961	-0.0168
637.294	-0.0148
637.628	-0.014
637.961	-0.015
638.295	-0.0137
638.628	-0.0141
638.961	-0.0135
639.294	-0.0101
639.628	-0.0076
639.961	-0.0085
640.294	-0.0097
640.627	-0.0125
640.96	-0.0142
641.293	-0.0164
641.625	-0.0189
641.958	-0.0167
642.291	-0.015
642.624	-0.0092
642.956	-0.0111
643.289	-0.0096
643.621	-0.0123
643.954	-0.0153
644.286	-0.0214
644.619	-0.0189
644.951	-0.0126
645.283	-0.0085
645.616	-0.0089
645.948	-0.0089
646.28	-0.0091
646.612	-0.0051
646.944	-0.0027
647.276	-0.0022
647.608	-0.0077
647.94	-0.0101
648.272	-0.0082
648.603	-0.0044
648.935	-0.0045
649.267	-0.005
649.598	-0.0076
649.93	-0.0107
650.261	-0.0152
650.593	-0.0154
650.924	-0.0121
651.256	-0.0096
651.587	-0.01
651.918	-0.0105
652.25	-0.0108
652.581	-0.0151
652.912	-0.0162
653.243	-0.0161
653.574	-0.0116
653.905	-0.0112
654.236	-0.0114
654.567	-0.0101
654.897	-0.0101
655.228	-0.0077
655.559	-0.008
655.89	-0.0075
656.22	-0.0104
656.551	-0.0131
656.881	-0.0153
657.212	-0.0196
657.542	-0.0182
657.872	-0.018
658.203	-0.0129
658.533	0.0002
658.863	0.0004
659.193	-0.0101
659.523	-0.015
659.853	-0.028
660.183	-0.0222
660.513	-0.0214
660.843	-0.0158
661.173	-0.0121
661.503	-0.013
661.833	-0.0107
662.162	-0.0116
662.492	-0.0103
662.822	-0.0137
663.151	-0.0143
663.481	-0.0151
663.81	-0.0172
664.139	-0.0139
664.469	-0.0153
664.798	-0.0104
665.127	-0.0124
665.456	-0.0118
665.785	-0.0149
666.114	-0.0167
666.443	-0.0174
666.772	-0.0148
667.101	-0.0144
667.43	-0.0125
667.759	-0.0103
668.088	-0.0095
668.416	-0.0138
668.745	-0.0189
669.074	-0.0215
669.402	-0.023
669.731	-0.0236
670.059	-0.0227
670.388	-0.0159
670.716	-0.016
671.044	-0.0126
671.372	-0.0118
671.701	-0.0081
672.029	-0.0084
672.357	-0.01
672.685	-0.0081
673.013	-0.01
673.341	-0.0056
673.669	-0.0076
673.996	-0.0086
674.324	-0.0134
674.652	-0.013
674.98	-0.0084
675.307	-0.0089
675.635	-0.0156
675.962	-0.0197
676.29	-0.0185
676.617	-0.0112
676.945	-0.0085
677.272	-0.0073
677.599	-0.0083
677.926	-0.0115
678.253	-0.0105
678.581	-0.0119
678.908	-0.0151
679.235	-0.0142
679.561	-0.0111
679.888	-0.0053
680.215	-0.005
680.542	-0.006
680.869	-0.0088
681.195	-0.0113
681.522	-0.0106
681.849	-0.0115
682.175	-0.0136
682.502	-0.0148
682.828	-0.0144
683.154	-0.0156
683.481	-0.0176
683.807	-0.0195
684.133	-0.0184
684.459	-0.0164
684.785	-0.0158
685.111	-0.0168
685.437	-0.0184
685.763	-0.0176
686.089	-0.0187
686.415	-0.019
686.741	-0.0176
687.067	-0.0129
687.392	-0.0141
687.718	-0.0165
688.043	-0.0159
688.369	-0.0137
688.694	-0.0087
689.02	-0.018
689.345	-0.0137
689.67	-0.0214
689.996	-0.0146
690.321	-0.0183
690.646	-0.0147
690.971	-0.0165
691.296	-0.0183
691.621	-0.0198
691.946	-0.014
692.271	-0.0141
692.596	-0.0087
692.921	-0.0077
693.245	-0.0047
693.57	-0.0073
693.895	-0.0078
694.219	-0.0084
694.544	-0.0076
694.868	-0.0095
695.193	-0.0132
695.517	-0.013
695.841	-0.0167
696.166	-0.0151
696.49	-0.0196
696.814	-0.0166
697.138	-0.0168
697.462	-0.0178
697.786	-0.0159
698.11	-0.0155
698.434	-0.0115
698.758	-0.0142
699.081	-0.0203
699.405	-0.0194
699.729	-0.0153
700.052	-0.0103
700.376	-0.0092
700.7	-0.0105
701.023	-0.0111
701.346	-0.013
701.67	-0.0125
701.993	-0.0135
702.316	-0.0177
702.639	-0.0206
702.963	-0.0231
703.286	-0.015
703.609	-0.0169
703.932	-0.0137
704.255	-0.0168
704.578	-0.0128
704.9	-0.0055
705.223	-0.0075
705.546	-0.0066
705.868	-0.012
706.191	-0.0148
706.514	-0.0221
706.836	-0.0217
707.159	-0.0183
707.481	-0.0105
707.803	-0.0088
708.126	-0.0092
708.448	-0.0169
708.77	-0.019
709.092	-0.0146
709.414	-0.0071
709.736	-0.006
710.058	-0.0118
710.38	-0.0151
710.702	-0.0163
711.024	-0.0148
711.345	-0.0125
711.667	-0.0147
711.989	-0.0132
712.31	-0.0113
712.632	-0.0103
712.953	-0.013
713.275	-0.0121
713.596	-0.0065
713.917	-0.0053
714.239	-0.0095
714.56	-0.012
714.881	-0.0148
715.202	-0.0158
715.523	-0.0132
715.844	-0.0098
716.165	-0.0108
716.486	-0.0147
716.807	-0.0157
717.128	-0.0156
717.448	-0.0169
717.769	-0.017
718.09	-0.0118
718.41	-0.012
718.731	-0.0124
719.051	-0.0132
719.372	-0.0084
719.692	-0.0084
720.012	-0.0097
720.332	-0.0148
720.653	-0.0157
720.973	-0.0145
721.293	-0.016
721.613	-0.0152
721.933	-0.0154
722.253	-0.0078
722.573	-0.0063
722.892	-0.0103
723.212	-0.0201
723.532	-0.0225
723.851	-0.0208
724.171	-0.0152
724.491	-0.0171
724.81	-0.0183
725.129	-0.0121
725.449	-0.0113
725.768	-0.0115
726.087	-0.0167
726.407	-0.0153
726.726	-0.0132
727.045	-0.0116
727.364	-0.0113
727.683	-0.0094
728.002	-0.0114
728.321	-0.0109
728.64	-0.0114
728.958	-0.0112
729.277	-0.0143
729.596	-0.0179
729.914	-0.0204
730.233	-0.0167
730.551	-0.0162
730.87	-0.0122
731.188	-0.0096
731.507	-0.0074
731.825	-0.0124
732.143	-0.0169
732.461	-0.0182
732.779	-0.0123
733.097	-0.0128
733.415	-0.0127
733.733	-0.0157
734.051	-0.0153
734.369	-0.0141
734.687	-0.0159
735.005	-0.0148
735.322	-0.0134
735.64	-0.0147
735.957	-0.012
736.275	-0.0125
736.592	-0.0061
736.91	-0.0099
737.227	-0.0132
737.544	-0.0191
737.862	-0.0163
738.179	-0.0133
738.496	-0.0078
738.813	-0.0128
739.13	-0.0178
739.447	-0.0197
739.764	-0.0201
740.081	-0.0218
740.398	-0.0245
740.714	-0.0217
741.031	-0.0165
741.348	-0.0143
741.664	-0.0152
741.981	-0.012
742.297	-0.0128
742.614	-0.0129
742.93	-0.0182
743.246	-0.0178
743.563	-0.0189
743.879	-0.0194
744.195	-0.017
744.511	-0.0193
744.827	-0.0145
745.143	-0.0194
745.459	-0.0167
745.775	-0.0186
746.091	-0.0169
746.406	-0.0149
746.722	-0.0151
747.038	-0.016
747.353	-0.0154
747.669	-0.0147
747.984	-0.012
748.3	-0.0132
748.615	-0.0167
748.93	-0.0159
749.246	-0.0159
749.561	-0.015
749.876	-0.0192
750.191	-0.0235
750.506	-0.0245
750.821	-0.0194
751.136	-0.0161
751.451	-0.0105
751.766	-0.0163
752.08	-0.0211
752.395	-0.0254
752.71	-0.0243
753.024	-0.019
753.339	-0.0155
753.653	-0.0196
753.968	-0.0201
754.282	-0.0188
754.596	-0.008
754.911	-0.0119
755.225	-0.0076
755.539	-0.016
755.853	-0.0113
756.167	-0.0158
756.481	-0.0147
756.795	-0.0178
757.109	-0.0168
757.423	-0.0171
757.736	-0.0141
758.05	-0.0186
758.364	-0.017
758.677	-0.0216
758.991	-0.0194
759.304	-0.0171
759.618	-0.0118
759.931	-0.0158
760.244	-0.0179
760.558	-0.0202
760.871	-0.0185
761.184	-0.0181
761.497	-0.013
761.81	-0.0109
762.123	-0.0142
762.436	-0.018
762.749	-0.021
763.062	-0.0186
763.374	-0.0191
763.687	-0.0159
764	-0.0145
764.312	-0.0102
764.625	-0.0093
764.937	-0.0119
765.25	-0.0168
765.562	-0.0199
765.874	-0.0175
766.186	-0.019
766.499	-0.0165
766.811	-0.0163
767.123	-0.0166
767.435	-0.0179
767.747	-0.0174
768.059	-0.0151
768.37	-0.0175
768.682	-0.0156
768.994	-0.0209
769.306	-0.0203
769.617	-0.0247
769.929	-0.0159
770.24	-0.0106
770.552	-0.0117
770.863	-0.0219
771.174	-0.0207
771.486	-0.0186
771.797	-0.0156
772.108	-0.0189
772.419	-0.0186
772.73	-0.0205
773.041	-0.0246
773.352	-0.0268
773.663	-0.0257
773.974	-0.0206
774.285	-0.0183
774.595	-0.0183
774.906	-0.0175
775.217	-0.0164
775.527	-0.0108
775.838	-0.0114
776.148	-0.0142
776.458	-0.0188
776.769	-0.0202
777.079	-0.0201
777.389	-0.0218
777.699	-0.0201
778.009	-0.0149
778.319	-0.0106
778.629	-0.0081
778.939	-0.011
779.249	-0.0076
779.559	-0.0111
779.869	-0.0141
780.178	-0.0195
780.488	-0.0206
780.798	-0.0209
781.107	-0.0198
781.417	-0.0223
781.726	-0.0218
782.035	-0.0238
782.345	-0.0189
782.654	-0.0187
782.963	-0.0153
783.272	-0.0181
783.581	-0.0153
783.89	-0.0144
784.199	-0.0124
784.508	-0.0175
784.817	-0.027
785.126	-0.0346
785.434	-0.0295
785.743	-0.0211
786.052	-0.0179
786.36	-0.0261
786.669	-0.0266
786.977	-0.0278
787.285	-0.0202
787.594	-0.0213
787.902	-0.0145
788.21	-0.0159
788.518	-0.0134
788.826	-0.0176
789.135	-0.0177
789.442	-0.0202
789.75	-0.0158
790.058	-0.0202
790.366	-0.0187
790.674	-0.0228
790.981	-0.0146
791.289	-0.0145
791.597	-0.018
791.904	-0.0229
792.212	-0.0294
792.519	-0.0266
792.826	-0.0242
793.134	-0.0194
793.441	-0.0191
793.748	-0.0156
794.055	-0.0142
794.362	-0.0155
794.669	-0.0243
794.976	-0.0219
795.283	-0.0204
795.59	-0.0119
795.897	-0.0136
796.203	-0.0138
796.51	-0.0177
796.817	-0.02
797.123	-0.0165
797.43	-0.0142
797.736	-0.0121
798.042	-0.0186
798.349	-0.0192
798.655	-0.0207
798.961	-0.0172
799.267	-0.0185
799.573	-0.0193
799.879	-0.0204
800.185	-0.0178
800.491	-0.013
800.797	-0.0105
801.103	-0.0135
801.408	-0.017
801.714	-0.0176
802.02	-0.0152
802.325	-0.0104
802.631	-0.0135
802.936	-0.0166
803.242	-0.0242
803.547	-0.0267
803.852	-0.0282
804.157	-0.0254
804.462	-0.023
804.768	-0.0246
805.073	-0.0245
805.378	-0.0231
805.682	-0.0176
805.987	-0.0181
806.292	-0.0109
806.597	-0.0108
806.902	-0.0117
807.206	-0.0222
807.511	-0.0218
807.815	-0.0265
808.12	-0.0237
808.424	-0.0273
808.728	-0.0183
809.033	-0.0182
809.337	-0.0234
809.641	-0.0211
809.945	-0.0189
810.249	-0.0112
810.553	-0.0106
810.857	-0.0106
811.161	-0.0112
811.465	-0.0173
811.768	-0.0168
812.072	-0.0189
812.376	-0.019
812.679	-0.0189
812.983	-0.0147
813.286	-0.0116
813.59	-0.013
813.893	-0.0108
814.196	-0.012
814.499	-0.0096
814.803	-0.0109
815.106	-0.0159
815.409	-0.0159
815.712	-0.0165
816.015	-0.009
816.318	-0.0136
816.62	-0.0144
816.923	-0.0154
817.226	-0.0191
817.528	-0.0207
817.831	-0.0228
818.133	-0.0189
818.436	-0.0224
818.738	-0.0244
819.041	-0.0289
819.343	-0.0219
819.645	-0.0236
819.947	-0.02
820.249	-0.0257
820.551	-0.0275
820.853	-0.0252
821.155	-0.0308
821.457	-0.0294
821.759	-0.0324
822.061	-0.0255
822.362	-0.0248
822.664	-0.023
822.966	-0.0162
823.267	-0.0181
823.569	-0.0205
823.87	-0.032
824.171	-0.029
824.473	-0.0327
824.774	-0.021
825.075	-0.019
825.376	-0.0069
825.677	-0.0109
825.978	-0.015
826.279	-0.0259
826.58	-0.025
826.881	-0.0318
827.181	-0.0207
827.482	-0.0162
827.783	-0.0082
828.083	-0.0266
828.384	-0.0413
828.684	-0.043
828.985	-0.028
829.285	-0.0222
829.585	-0.0206
829.885	-0.0252
830.185	-0.0245
830.486	-0.0225
830.786	-0.0225
831.086	-0.0171
831.385	-0.0181
831.685	-0.0166
831.985	-0.0303
832.285	-0.0313
832.585	-0.0248
832.884	-0.0174
833.184	-0.0183
833.483	-0.0344
833.783	-0.0375
834.082	-0.0357
834.381	-0.0296
834.681	-0.0244
834.98	-0.0166
835.279	-0.0218
835.578	-0.0253
835.877	-0.0337
836.176	-0.0235
836.475	-0.0191
836.774	-0.0249
837.072	-0.025
837.371	-0.0223
837.67	-0.0112
837.968	-0.0191
838.267	-0.0235
838.565	-0.0309
838.864	-0.0307
839.162	-0.0323
839.46	-0.043
839.759	-0.0283
840.057	-0.0273
840.355	-0.0147
840.653	-0.0241
840.951	-0.026
841.249	-0.0163
841.547	-0.0087
841.845	-0.0025
842.142	-0.0009
842.44	-0.0165
842.738	-0.0213
843.035	-0.0415
843.333	-0.0327
843.63	-0.0424
843.928	-0.0237
844.225	-0.0164
844.522	-0.0069
844.82	-0.0219
845.117	-0.0285
845.414	-0.0298
845.711	-0.021
846.008	-0.0217
846.305	-0.0277
846.602	-0.0327
846.898	-0.0217
847.195	-0.0251
847.492	-0.0208
847.788	-0.0294
848.085	-0.0132
848.382	-0.0135
848.678	-0.0192
848.974	-0.0357
849.271	-0.0258
849.567	-0.0221
849.863	-0.0157
850.159	-0.0304
850.455	-0.0247
850.751	-0.018
851.047	-0.014
851.343	-0.0307
851.639	-0.0351
851.935	-0.0416
852.23	-0.0298
852.526	-0.0354
852.822	-0.0328
853.117	-0.0306
853.413	-0.0173
853.708	-0.0283
854.003	-0.0231
854.299	-0.0202
854.594	-0.0057
854.889	-0.018
855.184	-0.0232
855.479	-0.0229
855.774	-0.0012
856.069	-0.0067
856.364	-0.012
856.659	-0.035
856.954	-0.0175
857.248	-0.0186
857.543	-0.0002
857.837	-0.0172
858.132	-0.0061
858.426	-0.0222
858.721	-0.0317
859.015	-0.0527
859.309	-0.0517
859.604	-0.0394
859.898	-0.0168
860.192	-0.0145
860.486	-0.021
860.78	-0.0297
861.074	-0.0213
861.367	-0.0149
861.661	-0.0114
861.955	-0.0212
862.248	-0.0186
862.542	-0.0203
862.836	-0.0123
863.129	-0.0168
863.422	-0.0088
863.716	-0.0093
864.009	-0.0018
864.302	-0.0194
864.595	-0.0352
864.889	-0.0567
865.182	-0.0565
865.475	-0.0565
865.767	-0.0582
866.06	-0.0567
866.353	-0.048
866.646	-0.0225
866.938	-0.0296
867.231	-0.0447
867.524	-0.0509
867.816	-0.0181
868.109	0.0016
868.401	0.0011
868.693	-0.0216
868.985	-0.04
869.278	-0.033
869.57	-0.0305
869.862	-0.0217
870.154	-0.0393
870.446	-0.041
870.738	-0.0441
871.029	-0.0505
871.321	-0.0395
871.613	-0.0345
871.904	-0.018
872.196	-0.0238
872.487	-0.0215
872.779	-0.0271
873.07	-0.0341
873.362	-0.0198
873.653	0.0016
873.944	-0.0102
874.235	-0.0144
874.526	-0.0401
874.817	-0.0412
875.108	-0.0455
875.399	-0.0296
875.69	0.0005
875.981	-0.0109
876.271	-0.0252
876.562	-0.0427
876.853	-0.0346
877.143	-0.0458
877.434	-0.0459
877.724	-0.0808
878.014	-0.0666
878.305	-0.0787
878.595	-0.0447
878.885	-0.0466
879.175	-0.0519
879.465	-0.0789
879.755	-0.0646
880.045	-0.0409
880.335	-0.0207
880.624	-0.0359
880.914	-0.0359
