Data from 37SS04OI_072017_1b_Absorbance_17-53-11-152.txt Node
Date: Fri Jul 28 17:53:11 MDT 2017
User: Tank Lab
Spectrometer: FLMS01220
Trigger mode: 0
Integration Time (sec): 1.000000E-1
Scans to average: 10
Electric dark correction enabled: true
Nonlinearity correction enabled: false
Boxcar width: 1
XAxis mode: Wavelengths
Number of Pixels in Spectrum: 2048
>>>>>Begin Spectral Data<<<<<
179.47	-0
179.856	-0
180.241	-0
180.626	-0
181.011	-0.2708
181.396	-0.1003
181.781	0.4758
182.166	-0.8957
182.551	0.9529
182.936	0.705
183.321	0.4443
183.706	0.0324
184.091	-0.1215
184.476	-0
184.86	0.1258
185.245	-0.65
185.63	0.5135
186.015	0.3548
186.399	-0
186.784	-0
187.169	0.6699
187.553	0.1836
187.938	-0
188.322	-0.0346
188.707	0.0031
189.091	0.0241
189.475	0.0764
189.86	0.0779
190.244	0.0893
190.629	0.1037
191.013	0.1488
191.397	0.2125
191.781	0.2698
192.165	0.2859
192.55	0.3175
192.934	0.329
193.318	0.3585
193.702	0.3715
194.086	0.3654
194.47	0.3601
194.854	0.3587
195.238	0.3619
195.622	0.3588
196.006	0.3488
196.389	0.3396
196.773	0.3299
197.157	0.3276
197.541	0.3334
197.924	0.3226
198.308	0.3108
198.692	0.2932
199.075	0.29
199.459	0.2813
199.843	0.2695
200.226	0.261
200.61	0.2542
200.993	0.2464
201.376	0.2407
201.76	0.2345
202.143	0.2321
202.527	0.2249
202.91	0.217
203.293	0.2094
203.676	0.2059
204.059	0.2066
204.443	0.2046
204.826	0.2008
205.209	0.1969
205.592	0.1976
205.975	0.1884
206.358	0.1833
206.741	0.1786
207.124	0.1897
207.507	0.1854
207.89	0.1821
208.273	0.1723
208.655	0.1709
209.038	0.1675
209.421	0.1642
209.804	0.1679
210.186	0.1679
210.569	0.1652
210.951	0.1611
211.334	0.1616
211.717	0.1646
212.099	0.1609
212.482	0.1567
212.864	0.1522
213.246	0.1539
213.629	0.152
214.011	0.1517
214.393	0.1502
214.776	0.1489
215.158	0.1469
215.54	0.1452
215.922	0.1466
216.305	0.1449
216.687	0.1424
217.069	0.1374
217.451	0.136
217.833	0.1341
218.215	0.1324
218.597	0.1299
218.979	0.1259
219.361	0.1228
219.742	0.1214
220.124	0.1225
220.506	0.1219
220.888	0.1204
221.27	0.1179
221.651	0.1182
222.033	0.1157
222.415	0.112
222.796	0.1102
223.178	0.1088
223.559	0.1083
223.941	0.1041
224.322	0.102
224.704	0.1005
225.085	0.1019
225.466	0.1014
225.848	0.099
226.229	0.0947
226.61	0.0931
226.992	0.0936
227.373	0.0932
227.754	0.0922
228.135	0.0903
228.516	0.0902
228.897	0.0875
229.278	0.0864
229.659	0.0846
230.04	0.0849
230.421	0.0845
230.802	0.0819
231.183	0.0817
231.564	0.0808
231.944	0.0804
232.325	0.0791
232.706	0.0761
233.087	0.076
233.467	0.0743
233.848	0.0752
234.229	0.0748
234.609	0.0753
234.99	0.0736
235.37	0.0733
235.751	0.0722
236.131	0.0715
236.511	0.0702
236.892	0.0688
237.272	0.0686
237.652	0.0684
238.033	0.0691
238.413	0.0692
238.793	0.0692
239.173	0.0689
239.553	0.0691
239.933	0.0678
240.313	0.0662
240.694	0.0635
241.074	0.0622
241.453	0.0615
241.833	0.0612
242.213	0.0626
242.593	0.0624
242.973	0.0627
243.353	0.0602
243.732	0.0596
244.112	0.0596
244.492	0.0601
244.872	0.0611
245.251	0.0606
245.631	0.0606
246.01	0.0602
246.39	0.0603
246.769	0.0604
247.149	0.0596
247.528	0.0603
247.908	0.0591
248.287	0.0584
248.666	0.0574
249.045	0.0576
249.425	0.0575
249.804	0.0558
250.183	0.0562
250.562	0.0559
250.941	0.0577
251.32	0.058
251.699	0.0574
252.078	0.0564
252.457	0.0544
252.836	0.0549
253.215	0.0553
253.594	0.056
253.973	0.0568
254.352	0.0557
254.731	0.0554
255.109	0.0536
255.488	0.0545
255.867	0.0538
256.245	0.0531
256.624	0.0523
257.002	0.0523
257.381	0.0535
257.759	0.0528
258.138	0.053
258.516	0.0527
258.895	0.0534
259.273	0.0525
259.651	0.052
260.03	0.0509
260.408	0.0519
260.786	0.0519
261.164	0.0524
261.542	0.0516
261.921	0.0509
262.299	0.0513
262.677	0.0521
263.055	0.052
263.433	0.0495
263.811	0.0484
264.188	0.0489
264.566	0.0512
264.944	0.0506
265.322	0.0503
265.7	0.0483
266.077	0.0479
266.455	0.0466
266.833	0.0482
267.21	0.0489
267.588	0.0487
267.966	0.0475
268.343	0.0465
268.721	0.0476
269.098	0.0481
269.475	0.0487
269.853	0.0487
270.23	0.047
270.607	0.0457
270.985	0.0444
271.362	0.0446
271.739	0.0439
272.116	0.0441
272.494	0.0451
272.871	0.0453
273.248	0.0443
273.625	0.0421
274.002	0.0411
274.379	0.041
274.756	0.0412
275.132	0.0405
275.509	0.04
275.886	0.0407
276.263	0.0418
276.64	0.0422
277.016	0.0416
277.393	0.0427
277.77	0.0414
278.146	0.0423
278.523	0.0408
278.899	0.0409
279.276	0.0388
279.652	0.0375
280.029	0.038
280.405	0.0385
280.782	0.0385
281.158	0.0375
281.534	0.0358
281.91	0.0367
282.287	0.0368
282.663	0.0384
283.039	0.0388
283.415	0.0383
283.791	0.0371
284.167	0.0364
284.543	0.0383
284.919	0.0382
285.295	0.0379
285.671	0.0361
286.047	0.0364
286.423	0.0357
286.799	0.036
287.174	0.0367
287.55	0.0358
287.926	0.0355
288.301	0.0344
288.677	0.0353
289.053	0.0341
289.428	0.0334
289.804	0.033
290.179	0.0338
290.555	0.0355
290.93	0.0356
291.305	0.0341
291.681	0.0337
292.056	0.0343
292.431	0.0341
292.806	0.0335
293.182	0.0315
293.557	0.0305
293.932	0.0294
294.307	0.0299
294.682	0.031
295.057	0.0319
295.432	0.0316
295.807	0.0317
296.182	0.031
296.557	0.0316
296.932	0.0312
297.306	0.0308
297.681	0.0298
298.056	0.0289
298.43	0.0283
298.805	0.0268
299.18	0.0271
299.554	0.0275
299.929	0.0305
300.303	0.0301
300.678	0.0279
301.052	0.0279
301.427	0.0289
301.801	0.0308
302.175	0.0287
302.55	0.0276
302.924	0.0267
303.298	0.0268
303.672	0.0275
304.046	0.0277
304.421	0.027
304.795	0.0272
305.169	0.0272
305.543	0.0275
305.917	0.0264
306.291	0.0265
306.664	0.0272
307.038	0.0266
307.412	0.0267
307.786	0.0258
308.16	0.0264
308.533	0.0256
308.907	0.0256
309.281	0.0266
309.654	0.0255
310.028	0.0243
310.401	0.0246
310.775	0.0249
311.148	0.0265
311.522	0.0252
311.895	0.0244
312.268	0.0246
312.642	0.0239
313.015	0.0244
313.388	0.0228
313.761	0.0231
314.135	0.0248
314.508	0.0249
314.881	0.024
315.254	0.0222
315.627	0.0218
316	0.0239
316.373	0.0227
316.746	0.0233
317.118	0.0201
317.491	0.0215
317.864	0.0219
318.237	0.0227
318.61	0.0223
318.982	0.0203
319.355	0.0198
319.727	0.0214
320.1	0.0213
320.473	0.0203
320.845	0.0196
321.218	0.0201
321.59	0.0218
321.962	0.0216
322.335	0.0211
322.707	0.0206
323.079	0.0196
323.452	0.0209
323.824	0.0229
324.196	0.0233
324.568	0.0228
324.94	0.0198
325.312	0.0209
325.684	0.0199
326.056	0.0209
326.428	0.0182
326.8	0.0167
327.172	0.0155
327.544	0.0154
327.915	0.016
328.287	0.0159
328.659	0.018
329.031	0.0192
329.402	0.0184
329.774	0.0167
330.145	0.0154
330.517	0.0162
330.888	0.0154
331.26	0.0166
331.631	0.0169
332.003	0.0187
332.374	0.0182
332.745	0.0173
333.117	0.0158
333.488	0.0153
333.859	0.017
334.23	0.0163
334.601	0.0163
334.972	0.0149
335.343	0.0167
335.714	0.0155
336.085	0.014
336.456	0.0139
336.827	0.0149
337.198	0.0166
337.569	0.0155
337.94	0.015
338.31	0.0135
338.681	0.0126
339.052	0.0127
339.422	0.0148
339.793	0.0163
340.164	0.0168
340.534	0.0165
340.905	0.0156
341.275	0.0147
341.645	0.0124
342.016	0.0137
342.386	0.0143
342.756	0.0173
343.127	0.0161
343.497	0.0153
343.867	0.0143
344.237	0.0138
344.607	0.0137
344.977	0.0131
345.347	0.0146
345.717	0.0142
346.087	0.0128
346.457	0.0127
346.827	0.0138
347.197	0.0149
347.567	0.0139
347.936	0.0128
348.306	0.0149
348.676	0.0156
349.046	0.0157
349.415	0.0135
349.785	0.0145
350.154	0.0126
350.524	0.0135
350.893	0.0105
351.263	0.0134
351.632	0.0125
352.001	0.0144
352.371	0.0139
352.74	0.0132
353.109	0.0125
353.478	0.0118
353.847	0.0122
354.217	0.0123
354.586	0.0108
354.955	0.0114
355.324	0.0103
355.693	0.0129
356.062	0.0117
356.43	0.0129
356.799	0.0103
357.168	0.0109
357.537	0.0097
357.906	0.0116
358.274	0.0101
358.643	0.0109
359.011	0.0092
359.38	0.0102
359.749	0.0096
360.117	0.0094
360.486	0.0097
360.854	0.0087
361.222	0.009
361.591	0.0079
361.959	0.0079
362.327	0.0076
362.695	0.0083
363.064	0.0094
363.432	0.01
363.8	0.0089
364.168	0.0079
364.536	0.008
364.904	0.0089
365.272	0.0084
365.64	0.0083
366.008	0.0082
366.376	0.0094
366.743	0.0093
367.111	0.0095
367.479	0.0083
367.847	0.0085
368.214	0.0095
368.582	0.0094
368.949	0.01
369.317	0.0072
369.684	0.0063
370.052	0.0047
370.419	0.0064
370.787	0.01
371.154	0.0115
371.521	0.0114
371.889	0.009
372.256	0.0074
372.623	0.0069
372.99	0.0053
373.357	0.0054
373.724	0.0061
374.091	0.0081
374.458	0.0084
374.825	0.0067
375.192	0.0053
375.559	0.0053
375.926	0.0059
376.293	0.0076
376.659	0.0095
377.026	0.0079
377.393	0.0084
377.759	0.0068
378.126	0.01
378.492	0.0084
378.859	0.0083
379.225	0.0072
379.592	0.0096
379.958	0.0085
380.325	0.0077
380.691	0.0057
381.057	0.0064
381.423	0.0052
381.79	0.0046
382.156	0.0031
382.522	0.0046
382.888	0.0047
383.254	0.0076
383.62	0.0071
383.986	0.0074
384.352	0.0062
384.718	0.0073
385.084	0.0084
385.449	0.0073
385.815	0.006
386.181	0.0057
386.547	0.0066
386.912	0.007
387.278	0.0065
387.643	0.005
388.009	0.0073
388.374	0.0056
388.74	0.0089
389.105	0.0056
389.471	0.0068
389.836	0.0066
390.201	0.0081
390.566	0.0093
390.932	0.0078
391.297	0.0057
391.662	0.0048
392.027	0.0032
392.392	0.0038
392.757	0.0012
393.122	0.0041
393.487	0.0055
393.852	0.0082
394.217	0.0047
394.582	0.0054
394.946	0.0046
395.311	0.0064
395.676	0.006
396.04	0.0049
396.405	0.0055
396.77	0.0051
397.134	0.0052
397.499	0.0065
397.863	0.0055
398.227	0.0069
398.592	0.0041
398.956	0.0045
399.32	0.0043
399.685	0.0046
400.049	0.0064
400.413	0.0065
400.777	0.0065
401.141	0.0052
401.505	0.0049
401.869	0.0044
402.233	0.0028
402.597	0.0031
402.961	0.0045
403.325	0.0078
403.689	0.0069
404.053	0.0064
404.416	0.003
404.78	0.0036
405.144	0.0036
405.507	0.0046
405.871	0.0047
406.234	0.0047
406.598	0.0045
406.961	0.004
407.325	0.0039
407.688	0.0047
408.051	0.0059
408.415	0.0075
408.778	0.0064
409.141	0.0041
409.504	0.0042
409.867	0.0042
410.23	0.0051
410.593	0.0032
410.956	0.0027
411.319	0.0026
411.682	0.002
412.045	0.0033
412.408	0.0025
412.771	0.0026
413.134	0.0011
413.496	0.0009
413.859	0.0022
414.222	0.0043
414.584	0.008
414.947	0.0072
415.309	0.0054
415.672	0.0042
416.034	0.004
416.396	0.0047
416.759	0.005
417.121	0.0064
417.483	0.0051
417.846	0.0023
418.208	0.001
418.57	0.003
418.932	0.0023
419.294	0.0023
419.656	0.0019
420.018	0.0032
420.38	0.0024
420.742	0.002
421.104	0.0012
421.466	0.0011
421.827	0.0013
422.189	0.0006
422.551	0.0016
422.912	0.0029
423.274	0.0064
423.636	0.0071
423.997	0.0076
424.359	0.0071
424.72	0.008
425.081	0.005
425.443	0.0044
425.804	0.0031
426.165	0.0053
426.527	0.0051
426.888	0.0037
427.249	0.004
427.61	0.0062
427.971	0.005
428.332	0.0031
428.693	0.0008
429.054	0.0022
429.415	0.0033
429.776	0.0006
430.137	0.0015
430.498	0.0014
430.858	0.0048
431.219	0.0042
431.58	0.005
431.94	0.0049
432.301	0.0037
432.661	0.0016
433.022	-0.0002
433.382	0.0015
433.743	0.0034
434.103	0.005
434.463	0.002
434.824	0.0012
435.184	0.0029
435.544	0.0076
435.904	0.0076
436.264	0.0065
436.624	0.0043
436.985	0.0038
437.345	0.0036
437.704	0.0037
438.064	0.003
438.424	0.0013
438.784	0.0011
439.144	0.0026
439.504	0.0026
439.863	0.0015
440.223	0.001
440.583	0.0014
440.942	0.0045
441.302	0.0055
441.661	0.0034
442.021	0.0014
442.38	-0.0009
442.739	0.0001
443.099	-0.0011
443.458	0.0007
443.817	0.0017
444.176	0.0039
444.536	0.0039
444.895	0.0039
445.254	0.0013
445.613	-0.0006
445.972	-0.0001
446.331	0.0042
446.69	0.0064
447.049	0.0043
447.407	0.0016
447.766	0.0024
448.125	0.0048
448.484	0.0045
448.842	0.0043
449.201	0.0034
449.559	0.002
449.918	0.0006
450.276	0.001
450.635	0.0023
450.993	0.0007
451.352	-0.0021
451.71	-0.0022
452.068	-0.003
452.426	-0.0014
452.785	-0
453.143	0.0035
453.501	0.0053
453.859	0.0034
454.217	0.0034
454.575	0.001
454.933	0.0018
455.291	0.0021
455.649	0.0034
456.006	0.0044
456.364	0.0044
456.722	0.0044
457.079	0.0034
457.437	0.0017
457.795	0.0028
458.152	0.0025
458.51	0.0036
458.867	0.0044
459.225	0.0053
459.582	0.0041
459.939	-0
460.297	-0.0011
460.654	-0.0004
461.011	0.0012
461.368	0.0041
461.725	0.0037
462.082	0.0046
462.44	0.001
462.797	-0.0002
463.153	-0.0009
463.51	-0.0011
463.867	0.0009
464.224	0.0028
464.581	0.0042
464.938	0.0048
465.294	0.0038
465.651	0.0031
466.008	-0.0008
466.364	0.0007
466.721	0.0037
467.077	0.0044
467.434	0.0038
467.79	0.0038
468.146	0.0023
468.503	0.0007
468.859	-0.0031
469.215	-0.0025
469.571	-0.0024
469.927	0.0026
470.284	0.0046
470.64	0.0065
470.996	0.0041
471.352	0.0046
471.707	0.0026
472.063	0.0029
472.419	0.0038
472.775	0.0066
473.131	0.0046
473.486	0.0011
473.842	-0.0019
474.198	-0.0005
474.553	0.0004
474.909	0.0018
475.264	0.0004
475.62	0.0044
475.975	0.0028
476.331	0.0046
476.686	0.0042
477.041	0.0036
477.396	0.0025
477.752	0.0018
478.107	0.0045
478.462	0.0032
478.817	0.0005
479.172	-0.0012
479.527	-0.0005
479.882	0.0012
480.237	0.0011
480.591	0.0027
480.946	0.0025
481.301	0.0031
481.656	0.0025
482.01	0.0022
482.365	0.0013
482.72	0.0007
483.074	0.0007
483.429	0.001
483.783	0.0018
484.137	0.0021
484.492	0.0032
484.846	0.0038
485.2	0.0047
485.555	0.0038
485.909	0.0023
486.263	0.0016
486.617	0.0025
486.971	0.0021
487.325	0.0015
487.679	0.0013
488.033	0.0014
488.387	0.0048
488.741	0.0038
489.094	0.0019
489.448	-0.0024
489.802	-0.0011
490.156	0.0016
490.509	0.0036
490.863	0.0031
491.216	0.003
491.57	0.0019
491.923	0.0019
492.277	0.002
492.63	0.0002
492.983	-0.0007
493.337	-0.0023
493.69	-0.0007
494.043	-0.0022
494.396	-0.0011
494.749	-0.0003
495.102	0.0009
495.455	0.0005
495.808	0.0009
496.161	0.0012
496.514	0.0018
496.867	0.0011
497.22	0.0025
497.572	0.0009
497.925	0.0022
498.278	-0.0003
498.63	0.0017
498.983	0.0006
499.335	-0.0003
499.688	-0.0034
500.04	-0.0055
500.393	-0.0051
500.745	-0.0026
501.097	-0.0021
501.449	-0.0003
501.802	-0.0004
502.154	0.0004
502.506	0.0002
502.858	-0.0004
503.21	0.0008
503.562	-0.0001
503.914	-0.0001
504.266	-0.0002
504.618	-0.0009
504.969	0.0006
505.321	-0.0002
505.673	0.0013
506.025	-0.0006
506.376	-0.0014
506.728	-0.0013
507.079	-0
507.431	0.0012
507.782	0.0011
508.134	0.0009
508.485	0.0001
508.836	0.0001
509.188	0.0001
509.539	-0
509.89	0.0003
510.241	0.001
510.592	0.0017
510.943	0.0006
511.294	0.0009
511.645	0.0004
511.996	-0.0008
512.347	-0.0025
512.698	-0.002
513.049	0.0008
513.399	0.0007
513.75	0.0009
514.101	0.0003
514.451	0.0021
514.802	0.0009
515.152	0.0005
515.503	0.002
515.853	0.0032
516.203	0.0035
516.554	0.0011
516.904	0.001
517.254	-0.0018
517.604	-0.0027
517.955	-0.004
518.305	-0.0042
518.655	-0.0042
519.005	-0.0034
519.355	-0.0007
519.705	-0.0022
520.055	-0.0023
520.404	-0.0048
520.754	-0.0026
521.104	-0.0012
521.454	0.0008
521.803	-0.0009
522.153	-0.002
522.502	-0.0032
522.852	-0.001
523.201	-0.0005
523.551	0.0007
523.9	-0.0022
524.249	-0.0042
524.599	-0.0023
524.948	-0.0007
525.297	0.0005
525.646	-0.0024
525.995	-0.0029
526.344	-0.0017
526.694	-0.0017
527.042	-0.0019
527.391	-0.005
527.74	-0.0034
528.089	-0.0025
528.438	-0.0014
528.787	-0.0042
529.135	-0.0074
529.484	-0.0083
529.833	-0.0058
530.181	-0.0049
530.53	-0.0051
530.878	-0.0084
531.227	-0.0078
531.575	-0.0064
531.923	-0.0051
532.271	-0.0053
532.62	-0.0032
532.968	-0.0043
533.316	-0.0055
533.664	-0.0041
534.012	0.0008
534.36	0.0044
534.708	0.0011
535.056	-0.004
535.404	-0.0045
535.752	-0.0042
536.1	-0.0025
536.447	-0.0039
536.795	-0.0029
537.143	-0.0035
537.49	-0.0023
537.838	-0.0033
538.185	-0.0033
538.533	-0.0054
538.88	-0.0093
539.228	-0.0081
539.575	-0.0066
539.922	-0.0016
540.269	-0.0009
540.617	0.0004
540.964	-0.0025
541.311	-0.0045
541.658	-0.0056
542.005	-0.0042
542.352	-0.002
542.699	-0.0031
543.045	-0.0033
543.392	-0.0031
543.739	-0.0018
544.086	-0.0054
544.432	-0.0073
544.779	-0.0087
545.126	-0.0053
545.472	-0.0058
545.819	-0.0034
546.165	-0.005
546.512	-0.0039
546.858	-0.006
547.204	-0.0043
547.55	-0.0035
547.897	-0.0019
548.243	-0.0021
548.589	-0.002
548.935	-0.002
549.281	-0.002
549.627	-0.0046
549.973	-0.0022
550.319	-0.0008
550.665	0.0009
551.01	-0.0039
551.356	-0.0063
551.702	-0.0061
552.048	-0.0049
552.393	-0.0023
552.739	-0.0059
553.084	-0.0052
553.43	-0.0073
553.775	-0.005
554.12	-0.0057
554.466	-0.0066
554.811	-0.0053
555.156	-0.0061
555.502	-0.0069
555.847	-0.0057
556.192	-0.0021
556.537	-0.0001
556.882	-0.0024
557.227	-0.006
557.572	-0.0081
557.917	-0.0048
558.261	-0.0005
558.606	0.0019
558.951	-0.0036
559.295	-0.0043
559.64	-0.0051
559.985	-0.0003
560.329	-0.0013
560.674	0.0003
561.018	-0.0007
561.363	-0.0031
561.707	-0.0052
562.051	-0.0064
562.395	-0.0065
562.74	-0.0053
563.084	-0.0021
563.428	-0.0006
563.772	-0.0016
564.116	-0.0059
564.46	-0.0065
564.804	-0.005
565.148	-0.005
565.492	-0.0053
565.835	-0.0061
566.179	-0.0033
566.523	-0.0036
566.866	-0.004
567.21	-0.0058
567.554	-0.003
567.897	0.0009
568.24	0.0006
568.584	-0.0006
568.927	-0.0035
569.271	-0.0044
569.614	-0.0069
569.957	-0.0063
570.3	-0.0017
570.643	-0.001
570.986	-0.0037
571.329	-0.0051
571.672	-0.0031
572.015	-0.0043
572.358	-0.0025
572.701	-0.0043
573.044	-0.0026
573.387	-0.0044
573.729	-0.0026
574.072	-0.0013
574.414	-0.0046
574.757	-0.0051
575.099	-0.0085
575.442	-0.0054
575.784	-0.0042
576.127	-0.0004
576.469	-0.0039
576.811	-0.0052
577.153	-0.0079
577.496	-0.0087
577.838	-0.0069
578.18	-0.0086
578.522	-0.0077
578.864	-0.0114
579.206	-0.0061
579.548	-0.0049
579.889	-0.0071
580.231	-0.006
580.573	-0.0031
580.915	-0.0037
581.256	-0.0086
581.598	-0.0111
581.939	-0.0114
582.281	-0.0073
582.622	-0.0083
582.964	-0.0053
583.305	-0.0064
583.646	-0.0046
583.988	-0.0008
584.329	-0.0015
584.67	-0.0063
585.011	-0.0099
585.352	-0.0119
585.693	-0.0083
586.034	-0.0088
586.375	-0.0075
586.716	-0.0056
587.057	-0.0019
587.398	-0.0058
587.738	-0.0027
588.079	-0.0051
588.42	-0.0032
588.76	-0.0072
589.101	-0.0086
589.441	-0.0073
589.782	-0.0042
590.122	-0.0017
590.463	-0.004
590.803	-0.0076
591.143	-0.0062
591.483	-0.0083
591.823	-0.0068
592.164	-0.0098
592.504	-0.0056
592.844	-0.0067
593.184	-0.0066
593.523	-0.0084
593.863	-0.0066
594.203	-0.0089
594.543	-0.0074
594.883	-0.0077
595.222	-0.0044
595.562	-0.0013
595.901	-0.0035
596.241	-0.0073
596.58	-0.0094
596.92	-0.0088
597.259	-0.0059
597.599	-0.0052
597.938	-0.0059
598.277	-0.0035
598.616	-0.0063
598.955	-0.0073
599.295	-0.0113
599.634	-0.0108
599.973	-0.0086
600.312	-0.0073
600.65	-0.0054
600.989	-0.0045
601.328	-0.002
601.667	-0.0011
602.005	-0.005
602.344	-0.008
602.683	-0.0073
603.021	-0.0052
603.36	-0.0055
603.698	-0.0082
604.037	-0.0083
604.375	-0.0068
604.713	-0.0064
605.052	-0.0057
605.39	-0.0062
605.728	-0.0067
606.066	-0.0051
606.404	-0.0064
606.742	-0.0067
607.08	-0.0065
607.418	-0.0053
607.756	-0.003
608.094	-0.004
608.431	-0.0039
608.769	-0.0037
609.107	-0.006
609.444	-0.0066
609.782	-0.0073
610.12	-0.0043
610.457	-0.0045
610.794	-0.0099
611.132	-0.0118
611.469	-0.0137
611.806	-0.0106
612.144	-0.0099
612.481	-0.0072
612.818	-0.0018
613.155	-0.006
613.492	-0.0028
613.829	-0.0068
614.166	-0.0013
614.503	-0.0032
614.84	-0.0022
615.176	-0.0058
615.513	-0.008
615.85	-0.0102
616.187	-0.0062
616.523	-0.0057
616.86	-0.0078
617.196	-0.011
617.533	-0.0083
617.869	-0.006
618.205	-0.006
618.542	-0.0094
618.878	-0.012
619.214	-0.0113
619.55	-0.0088
619.886	-0.006
620.222	-0.0084
620.558	-0.0091
620.894	-0.0058
621.23	-0.0034
621.566	-0.0063
621.902	-0.0079
622.238	-0.0118
622.573	-0.006
622.909	-0.0073
623.244	-0.0045
623.58	-0.009
623.916	-0.0122
624.251	-0.0121
624.586	-0.0098
624.922	-0.0091
625.257	-0.0102
625.592	-0.0116
625.927	-0.0052
626.263	-0.007
626.598	-0.0053
626.933	-0.0068
627.268	-0.0036
627.603	-0.0058
627.938	-0.0098
628.272	-0.0113
628.607	-0.0115
628.942	-0.0111
629.277	-0.0094
629.611	-0.0087
629.946	-0.0063
630.281	-0.0079
630.615	-0.0084
630.949	-0.0085
631.284	-0.0075
631.618	-0.0046
631.953	-0.005
632.287	-0.0064
632.621	-0.0074
632.955	-0.008
633.289	-0.0087
633.623	-0.0077
633.957	-0.0084
634.291	-0.0114
634.625	-0.0131
634.959	-0.0129
635.293	-0.0064
635.627	-0.0089
635.96	-0.0103
636.294	-0.017
636.627	-0.0158
636.961	-0.0128
637.294	-0.0094
637.628	-0.0083
637.961	-0.0085
638.295	-0.0075
638.628	-0.0084
638.961	-0.0064
639.294	-0.0039
639.628	-0.001
639.961	-0.0051
640.294	-0.005
640.627	-0.0103
640.96	-0.0135
641.293	-0.015
641.625	-0.0151
641.958	-0.013
642.291	-0.0088
642.624	-0.0041
642.956	-0.0027
643.289	-0.0049
643.621	-0.0104
643.954	-0.0104
644.286	-0.0162
644.619	-0.0137
644.951	-0.012
645.283	-0.0071
645.616	-0.0041
645.948	-0.0033
646.28	-0.004
646.612	-0.0081
646.944	-0.0035
647.276	-0.004
647.608	-0.0003
647.94	-0.0014
648.272	-0.0007
648.603	-0.0024
648.935	-0.0056
649.267	-0.0097
649.598	-0.0091
649.93	-0.011
650.261	-0.0064
650.593	-0.0043
650.924	-0.0025
651.256	-0.0015
651.587	-0.0056
651.918	-0.0052
652.25	-0.0067
652.581	-0.009
652.912	-0.0122
653.243	-0.0132
653.574	-0.0101
653.905	-0.0105
654.236	-0.01
654.567	-0.0105
654.897	-0.0122
655.228	-0.0118
655.559	-0.0087
655.89	-0.0035
656.22	-0.0031
656.551	-0.0052
656.881	-0.0069
657.212	-0.01
657.542	-0.0074
657.872	-0.0086
658.203	-0.0024
658.533	0.0043
658.863	0.0008
659.193	-0.0087
659.523	-0.0132
659.853	-0.0216
660.183	-0.0164
660.513	-0.0127
660.843	-0.0123
661.173	-0.0095
661.503	-0.0115
661.833	-0.0081
662.162	-0.0098
662.492	-0.0068
662.822	-0.0107
663.151	-0.0118
663.481	-0.0135
663.81	-0.0186
664.139	-0.0143
664.469	-0.0142
664.798	-0.0074
665.127	-0.0096
665.456	-0.0097
665.785	-0.009
666.114	-0.0099
666.443	-0.0103
666.772	-0.0085
667.101	-0.0128
667.43	-0.0148
667.759	-0.0173
668.088	-0.0097
668.416	-0.0075
668.745	-0.0102
669.074	-0.0156
669.402	-0.0196
669.731	-0.0136
670.059	-0.0124
670.388	-0.0063
670.716	-0.0137
671.044	-0.0086
671.372	-0.0084
671.701	-0.0031
672.029	-0.0062
672.357	-0.0088
672.685	-0.0093
673.013	-0.0073
673.341	-0.0046
673.669	-0.0053
673.996	-0.0088
674.324	-0.0101
674.652	-0.0107
674.98	-0.0053
675.307	-0.0063
675.635	-0.0087
675.962	-0.0146
676.29	-0.0138
676.617	-0.0086
676.945	-0.0073
677.272	-0.0071
677.599	-0.0062
677.926	-0.0056
678.253	-0.0034
678.581	-0.0112
678.908	-0.0116
679.235	-0.0132
679.561	-0.0101
679.888	-0.0086
680.215	-0.0096
680.542	-0.0034
680.869	-0.0057
681.195	-0.0048
681.522	-0.009
681.849	-0.0126
682.175	-0.0135
682.502	-0.014
682.828	-0.0089
683.154	-0.0125
683.481	-0.0112
683.807	-0.0127
684.133	-0.01
684.459	-0.0091
684.785	-0.0108
685.111	-0.0127
685.437	-0.0146
685.763	-0.0163
686.089	-0.0166
686.415	-0.0173
686.741	-0.009
687.067	-0.0047
687.392	-0.0048
687.718	-0.0096
688.043	-0.0084
688.369	-0.009
688.694	-0.005
689.02	-0.0099
689.345	-0.0063
689.67	-0.0128
689.996	-0.0106
690.321	-0.0109
690.646	-0.0103
690.971	-0.011
691.296	-0.0143
691.621	-0.0121
691.946	-0.011
692.271	-0.0076
692.596	-0.0067
692.921	-0.0048
693.245	-0.004
693.57	-0.0067
693.895	-0.0052
694.219	-0.0072
694.544	-0.0048
694.868	-0.0071
695.193	-0.0073
695.517	-0.0073
695.841	-0.011
696.166	-0.012
696.49	-0.0129
696.814	-0.0106
697.138	-0.0111
697.462	-0.0109
697.786	-0.0087
698.11	-0.0084
698.434	-0.0063
698.758	-0.0068
699.081	-0.0099
699.405	-0.0122
699.729	-0.0134
700.052	-0.0132
700.376	-0.011
700.7	-0.0124
701.023	-0.0124
701.346	-0.0167
701.67	-0.0167
701.993	-0.015
702.316	-0.0141
702.639	-0.0141
702.963	-0.018
703.286	-0.0144
703.609	-0.0128
703.932	-0.0112
704.255	-0.0096
704.578	-0.012
704.9	-0.0061
705.223	-0.0096
705.546	-0.0036
705.868	-0.0059
706.191	-0.0087
706.514	-0.0113
706.836	-0.0107
707.159	-0.0079
707.481	-0.0064
707.803	-0.0089
708.126	-0.0103
708.448	-0.0148
708.77	-0.0128
709.092	-0.0092
709.414	-0.011
709.736	-0.0096
710.058	-0.015
710.38	-0.0135
710.702	-0.0132
711.024	-0.0089
711.345	-0.0094
711.667	-0.0107
711.989	-0.0108
712.31	-0.0053
712.632	-0.0087
712.953	-0.0086
713.275	-0.0121
713.596	-0.0065
713.917	-0.0092
714.239	-0.0107
714.56	-0.0148
714.881	-0.0125
715.202	-0.0115
715.523	-0.0051
715.844	-0.0018
716.165	-0.0074
716.486	-0.0142
716.807	-0.0186
717.128	-0.0143
717.448	-0.0112
717.769	-0.0115
718.09	-0.0045
718.41	-0.0032
718.731	-0.0005
719.051	-0.0064
719.372	-0.0032
719.692	-0.0044
720.012	-0.0029
720.332	-0.0057
720.653	-0.0064
720.973	-0.0065
721.293	-0.0094
721.613	-0.009
721.933	-0.0089
722.253	-0.0087
722.573	-0.0092
722.892	-0.012
723.212	-0.0168
723.532	-0.0192
723.851	-0.0175
724.171	-0.0119
724.491	-0.0164
724.81	-0.0192
725.129	-0.015
725.449	-0.0097
725.768	-0.0072
726.087	-0.0122
726.407	-0.0071
726.726	-0.0044
727.045	-0.0003
727.364	-0.004
727.683	-0.0061
728.002	-0.008
728.321	-0.009
728.64	-0.0097
728.958	-0.0107
729.277	-0.0088
729.596	-0.0104
729.914	-0.0121
730.233	-0.0117
730.551	-0.0137
730.87	-0.0117
731.188	-0.0088
731.507	-0.0065
731.825	-0.0093
732.143	-0.0131
732.461	-0.0106
732.779	-0.0065
733.097	-0.0117
733.415	-0.0127
733.733	-0.0131
734.051	-0.0126
734.369	-0.0155
734.687	-0.0168
735.005	-0.01
735.322	-0.0049
735.64	-0.0078
735.957	-0.012
736.275	-0.0116
736.592	-0.0067
736.91	-0.0043
737.227	-0.008
737.544	-0.0108
737.862	-0.0107
738.179	-0.0124
738.496	-0.0122
738.813	-0.0167
739.13	-0.0166
739.447	-0.0125
739.764	-0.0095
740.081	-0.0072
740.398	-0.013
740.714	-0.0107
741.031	-0.013
741.348	-0.0105
741.664	-0.0116
741.981	-0.0089
742.297	-0.0075
742.614	-0.0113
742.93	-0.0131
743.246	-0.0147
743.563	-0.0134
743.879	-0.0139
744.195	-0.012
744.511	-0.0128
744.827	-0.0083
745.143	-0.016
745.459	-0.0134
745.775	-0.0132
746.091	-0.0115
746.406	-0.0094
746.722	-0.0126
747.038	-0.0114
747.353	-0.0139
747.669	-0.0152
747.984	-0.0165
748.3	-0.0164
748.615	-0.016
748.93	-0.0084
749.246	-0.0107
749.561	-0.013
749.876	-0.016
750.191	-0.0155
750.506	-0.0158
750.821	-0.0178
751.136	-0.0196
751.451	-0.0117
751.766	-0.0126
752.08	-0.009
752.395	-0.0132
752.71	-0.0152
753.024	-0.0141
753.339	-0.0076
753.653	-0.0046
753.968	-0.0087
754.282	-0.0149
754.596	-0.0114
754.911	-0.0077
755.225	-0.0024
755.539	-0.0088
755.853	-0.0125
756.167	-0.0148
756.481	-0.0178
756.795	-0.0158
757.109	-0.015
757.423	-0.0099
757.736	-0.0101
758.05	-0.015
758.364	-0.0131
758.677	-0.0158
758.991	-0.0117
759.304	-0.0132
759.618	-0.0071
759.931	-0.0107
760.244	-0.0124
760.558	-0.0108
760.871	-0.0107
761.184	-0.0095
761.497	-0.0118
761.81	-0.0089
762.123	-0.0116
762.436	-0.0148
762.749	-0.0188
763.062	-0.0159
763.374	-0.0182
763.687	-0.0185
764	-0.0157
764.312	-0.0109
764.625	-0.0057
764.937	-0.011
765.25	-0.0122
765.562	-0.0093
765.874	-0.0083
766.186	-0.0087
766.499	-0.0141
766.811	-0.0146
767.123	-0.02
767.435	-0.0229
767.747	-0.0157
768.059	-0.0108
768.37	-0.0105
768.682	-0.0133
768.994	-0.0178
769.306	-0.0154
769.617	-0.0162
769.929	-0.0084
770.24	-0.0009
770.552	-0.0056
770.863	-0.0132
771.174	-0.018
771.486	-0.0148
771.797	-0.0094
772.108	-0.0116
772.419	-0.0087
772.73	-0.0118
773.041	-0.0102
773.352	-0.014
773.663	-0.0139
773.974	-0.0116
774.285	-0.0115
774.595	-0.0133
774.906	-0.0144
775.217	-0.0127
775.527	-0.0098
775.838	-0.0103
776.148	-0.0104
776.458	-0.0125
776.769	-0.0132
777.079	-0.0141
777.389	-0.0124
777.699	-0.0109
778.009	-0.0149
778.319	-0.016
778.629	-0.0149
778.939	-0.0117
779.249	-0.0081
779.559	-0.0116
779.869	-0.0147
780.178	-0.0166
780.488	-0.0174
780.798	-0.013
781.107	-0.0117
781.417	-0.0121
781.726	-0.0135
782.035	-0.0163
782.345	-0.0184
782.654	-0.0222
782.963	-0.0194
783.272	-0.0143
783.581	-0.0108
783.89	-0.012
784.199	-0.0087
784.508	-0.012
784.817	-0.0195
785.126	-0.0284
785.434	-0.0262
785.743	-0.016
786.052	-0.0109
786.36	-0.0155
786.669	-0.0194
786.977	-0.0207
787.285	-0.0181
787.594	-0.0125
787.902	-0.009
788.21	-0.0104
788.518	-0.0117
788.826	-0.0142
789.135	-0.0101
789.442	-0.0142
789.75	-0.0141
790.058	-0.0168
790.366	-0.0115
790.674	-0.0138
790.981	-0.0091
791.289	-0.013
791.597	-0.0155
791.904	-0.0208
792.212	-0.022
792.519	-0.0193
792.826	-0.0155
793.134	-0.0131
793.441	-0.0071
793.748	-0.005
794.055	-0.0008
794.362	-0.0061
794.669	-0.0105
794.976	-0.0181
795.283	-0.0182
795.59	-0.0139
795.897	-0.01
796.203	-0.0125
796.51	-0.0181
796.817	-0.0179
797.123	-0.0128
797.43	-0.01
797.736	-0.0125
798.042	-0.0161
798.349	-0.0158
798.655	-0.0129
798.961	-0.0189
799.267	-0.0185
799.573	-0.0178
799.879	-0.0135
800.185	-0.0123
800.491	-0.0098
800.797	-0.0088
801.103	-0.0119
801.408	-0.0135
801.714	-0.0104
802.02	-0.0104
802.325	-0.0137
802.631	-0.0191
802.936	-0.021
803.242	-0.0169
803.547	-0.0138
803.852	-0.0128
804.157	-0.0189
804.462	-0.0215
804.768	-0.0183
805.073	-0.0127
805.378	-0.0098
805.682	-0.0116
805.987	-0.0143
806.292	-0.0094
806.597	-0.0028
806.902	-0.0012
807.206	-0.0074
807.511	-0.0147
807.815	-0.0214
808.12	-0.0243
808.424	-0.0237
808.728	-0.0131
809.033	-0.0136
809.337	-0.0171
809.641	-0.0183
809.945	-0.0147
810.249	-0.0126
810.553	-0.0088
810.857	-0.0103
811.161	-0.0094
811.465	-0.0188
811.768	-0.0189
812.072	-0.0184
812.376	-0.0165
812.679	-0.0194
812.983	-0.0154
813.286	-0.0148
813.59	-0.0088
813.893	-0.0128
814.196	-0.0076
814.499	-0.0096
814.803	-0.0101
815.106	-0.0158
815.409	-0.013
815.712	-0.0152
816.015	-0.013
816.318	-0.0179
816.62	-0.0166
816.923	-0.017
817.226	-0.0202
817.528	-0.0176
817.831	-0.0205
818.133	-0.0108
818.436	-0.0197
818.738	-0.0154
819.041	-0.0208
819.343	-0.0093
819.645	-0.0169
819.947	-0.0067
820.249	-0.0064
820.551	-0.0008
820.853	-0.0113
821.155	-0.0203
821.457	-0.0215
821.759	-0.0177
822.061	-0.0112
822.362	-0.0068
822.664	-0.0127
822.966	-0.0086
823.267	-0.0181
823.569	-0.0111
823.87	-0.0224
824.171	-0.0164
824.473	-0.0204
824.774	-0.0104
825.075	-0.0122
825.376	-0.0102
825.677	-0.0069
825.978	-0.0055
826.279	-0.0036
826.58	-0.005
826.881	-0.0093
827.181	-0.0085
827.482	-0.0124
827.783	-0.0119
828.083	-0.0134
828.384	-0.0224
828.684	-0.0238
828.985	-0.0219
829.285	-0.0153
829.585	-0.0126
829.885	-0.0209
830.185	-0.0231
830.486	-0.026
830.786	-0.0181
831.086	-0.0147
831.385	-0.0156
831.685	-0.0206
831.985	-0.036
832.285	-0.0316
832.585	-0.0321
832.884	-0.019
833.184	-0.0203
833.483	-0.024
833.783	-0.0274
834.082	-0.03
834.381	-0.0232
834.681	-0.017
834.98	-0.0114
835.279	-0.0088
835.578	-0.0098
835.877	-0.0085
836.176	-0.015
836.475	-0.0173
836.774	-0.023
837.072	-0.0282
837.371	-0.0216
837.67	-0.0111
837.968	-0.0041
838.267	-0.0097
838.565	-0.0203
838.864	-0.0187
839.162	-0.0263
839.46	-0.0294
839.759	-0.0286
840.057	-0.0261
840.355	-0.0183
840.653	-0.016
840.951	-0.0154
841.249	-0.0198
841.547	-0.0112
841.845	0.0035
842.142	0.0099
842.44	-0.0026
842.738	-0.0157
843.035	-0.0284
843.333	-0.0266
843.63	-0.0213
843.928	-0.0048
844.225	-0.0029
844.522	0.0009
844.82	-0.0103
845.117	-0.0093
845.414	-0.0086
845.711	-0.0013
846.008	-0.0128
846.305	-0.0225
846.602	-0.0242
846.898	-0.0149
847.195	-0.0164
847.492	-0.014
847.788	-0.0179
848.085	-0.0074
848.382	-0.0039
848.678	-0.0122
848.974	-0.0201
849.271	-0.0292
849.567	-0.0145
849.863	-0.0173
850.159	-0.0171
850.455	-0.0199
850.751	-0.0102
851.047	-0.0084
851.343	-0.0217
851.639	-0.0335
851.935	-0.0382
852.23	-0.031
852.526	-0.0272
852.822	-0.0198
853.117	-0.0115
853.413	-0.0059
853.708	-0.0072
854.003	0.0068
854.299	0.0092
854.594	0.0063
854.889	-0.0167
855.184	-0.0169
855.479	-0.0069
855.774	0.0194
856.069	0.0014
856.364	0
856.659	-0.0227
856.954	-0.0025
857.248	-0.0128
857.543	0.0004
857.837	-0.0026
858.132	-0.0033
858.426	-0.0152
858.721	-0.0248
859.015	-0.0231
859.309	-0.029
859.604	-0.0127
859.898	-0.0181
860.192	-0.0043
860.486	-0.0236
860.78	-0.014
861.074	-0.006
861.367	0.0093
861.661	0.0039
861.955	-0.0046
862.248	0.002
862.542	-0.0032
862.836	-0.0081
863.129	-0.0258
863.422	-0.0152
863.716	-0.0174
864.009	-0.0012
864.302	-0.0081
864.595	-0.0139
864.889	-0.0266
865.182	-0.0187
865.475	-0.0108
865.767	-0.0122
866.06	-0.0174
866.353	-0.0223
866.646	-0.0074
866.938	0.0013
867.231	0.0143
867.524	0.0102
867.816	0.019
868.109	0.0184
868.401	0.0131
868.693	0.0045
868.985	-0.0166
869.278	-0.0296
869.57	-0.0287
869.862	-0.0194
870.154	-0.0125
870.446	-0.0222
870.738	-0.0292
871.029	-0.0418
871.321	-0.0322
871.613	-0.0082
871.904	0.0118
872.196	0.0164
872.487	-0.007
872.779	-0.0196
873.07	-0.0357
873.362	-0.0114
873.653	0.0095
873.944	0.0202
874.235	-0.0033
874.526	-0.0124
874.817	-0.024
875.108	-0.0174
875.399	-0.0139
875.69	-0.0122
875.981	-0.0031
876.271	-0.0067
876.562	0.0066
876.853	-0.006
877.143	-0.008
877.434	-0.0223
877.724	-0.042
878.014	-0.0423
878.305	-0.0446
878.595	-0.021
878.885	-0.0222
879.175	-0.0194
879.465	-0.039
879.755	-0.025
880.045	-0.0027
880.335	0.0238
880.624	0.0235
880.914	0.0235
