Data from 38SS01OI_072017_1b_Absorbance_16-50-21-430.txt Node
Date: Fri Jul 28 16:50:21 MDT 2017
User: Tank Lab
Spectrometer: FLMS01220
Trigger mode: 0
Integration Time (sec): 1.000000E-1
Scans to average: 10
Electric dark correction enabled: true
Nonlinearity correction enabled: false
Boxcar width: 1
XAxis mode: Wavelengths
Number of Pixels in Spectrum: 2048
>>>>>Begin Spectral Data<<<<<
179.47	0.5209
179.856	0.5209
180.241	-0
180.626	-0
181.011	-0.0799
181.396	-0
181.781	-0
182.166	-0.4339
182.551	-0
182.936	0.7969
183.321	0.1004
183.706	-0.1188
184.091	-0.0941
184.476	-0
184.86	-0.7656
185.245	-1.0705
185.63	0.6478
186.015	-0
186.399	-0
186.784	-0
187.169	0.4741
187.553	1.3896
187.938	-0
188.322	0.0677
188.707	0.2018
189.091	0.2444
189.475	0.3113
189.86	0.3377
190.244	0.4049
190.629	0.3489
191.013	0.4155
191.397	0.4696
191.781	0.5618
192.165	0.5615
192.55	0.6167
192.934	0.6761
193.318	0.684
193.702	0.7082
194.086	0.7359
194.47	0.8112
194.854	0.8474
195.238	0.8708
195.622	0.9
196.006	0.9064
196.389	0.923
196.773	0.9142
197.157	0.9403
197.541	0.9662
197.924	0.9775
198.308	0.9626
198.692	0.9622
199.075	0.9631
199.459	0.9548
199.843	0.9229
200.226	0.9132
200.61	0.9399
200.993	0.9432
201.376	0.9523
201.76	0.9333
202.143	0.9383
202.527	0.9244
202.91	0.9286
203.293	0.9234
203.676	0.9024
204.059	0.9016
204.443	0.9191
204.826	0.9321
205.209	0.9398
205.592	0.9415
205.975	0.9425
206.358	0.9485
206.741	0.9365
207.124	0.9572
207.507	0.9473
207.89	0.9444
208.273	0.9393
208.655	0.9173
209.038	0.9065
209.421	0.8966
209.804	0.8956
210.186	0.915
210.569	0.916
210.951	0.9197
211.334	0.9022
211.717	0.8985
212.099	0.9016
212.482	0.9077
212.864	0.9066
213.246	0.9114
213.629	0.9018
214.011	0.8996
214.393	0.8868
214.776	0.877
215.158	0.8719
215.54	0.8713
215.922	0.8742
216.305	0.8656
216.687	0.8541
217.069	0.8441
217.451	0.8414
217.833	0.843
218.215	0.8465
218.597	0.845
218.979	0.8371
219.361	0.8239
219.742	0.8149
220.124	0.8121
220.506	0.8039
220.888	0.7959
221.27	0.7932
221.651	0.796
222.033	0.7939
222.415	0.7832
222.796	0.7799
223.178	0.7755
223.559	0.7715
223.941	0.7573
224.322	0.7466
224.704	0.7407
225.085	0.7432
225.466	0.744
225.848	0.7383
226.229	0.7311
226.61	0.7264
226.992	0.7225
227.373	0.7182
227.754	0.713
228.135	0.7077
228.516	0.7006
228.897	0.6952
229.278	0.6917
229.659	0.6893
230.04	0.6824
230.421	0.676
230.802	0.6736
231.183	0.6737
231.564	0.6724
231.944	0.6683
232.325	0.6638
232.706	0.6586
233.087	0.6518
233.467	0.6464
233.848	0.6419
234.229	0.6393
234.609	0.6382
234.99	0.6366
235.37	0.6337
235.751	0.6286
236.131	0.6237
236.511	0.6204
236.892	0.6182
237.272	0.6187
237.652	0.6177
238.033	0.6156
238.413	0.6135
238.793	0.6091
239.173	0.6052
239.553	0.5988
239.933	0.5963
240.313	0.5965
240.694	0.5929
241.074	0.5891
241.453	0.5833
241.833	0.5812
242.213	0.5791
242.593	0.5756
242.973	0.575
243.353	0.5738
243.732	0.5752
244.112	0.5715
244.492	0.5669
244.872	0.5619
245.251	0.5615
245.631	0.5614
246.01	0.5601
246.39	0.5574
246.769	0.5564
247.149	0.5546
247.528	0.5534
247.908	0.55
248.287	0.5494
248.666	0.546
249.045	0.5456
249.425	0.5436
249.804	0.5425
250.183	0.5397
250.562	0.537
250.941	0.536
251.32	0.5343
251.699	0.5322
252.078	0.5285
252.457	0.5263
252.836	0.5253
253.215	0.5263
253.594	0.5254
253.973	0.522
254.352	0.5211
254.731	0.5179
255.109	0.5178
255.488	0.5142
255.867	0.516
256.245	0.513
256.624	0.5114
257.002	0.5056
257.381	0.506
257.759	0.5044
258.138	0.5081
258.516	0.5067
258.895	0.5066
259.273	0.5024
259.651	0.4992
260.03	0.4979
260.408	0.4969
260.786	0.498
261.164	0.4951
261.542	0.4931
261.921	0.488
262.299	0.4869
262.677	0.4856
263.055	0.4866
263.433	0.4847
263.811	0.4835
264.188	0.4789
264.566	0.476
264.944	0.474
265.322	0.4747
265.7	0.4747
266.077	0.4716
266.455	0.4695
266.833	0.4675
267.21	0.468
267.588	0.4672
267.966	0.4649
268.343	0.4632
268.721	0.4603
269.098	0.4584
269.475	0.4561
269.853	0.4542
270.23	0.4516
270.607	0.4477
270.985	0.4476
271.362	0.4443
271.739	0.4422
272.116	0.4377
272.494	0.4371
272.871	0.4388
273.248	0.4388
273.625	0.4357
274.002	0.4322
274.379	0.4285
274.756	0.4284
275.132	0.4258
275.509	0.4251
275.886	0.4224
276.263	0.4208
276.64	0.4193
277.016	0.4178
277.393	0.4151
277.77	0.4112
278.146	0.409
278.523	0.4083
278.899	0.4073
279.276	0.4059
279.652	0.4034
280.029	0.4022
280.405	0.3982
280.782	0.3958
281.158	0.3923
281.534	0.3928
281.91	0.3914
282.287	0.3896
282.663	0.3883
283.039	0.3868
283.415	0.3845
283.791	0.3811
284.167	0.3779
284.543	0.3778
284.919	0.3742
285.295	0.3734
285.671	0.3719
286.047	0.3718
286.423	0.3699
286.799	0.3695
287.174	0.3679
287.55	0.3663
287.926	0.3631
288.301	0.3608
288.677	0.3583
289.053	0.357
289.428	0.3561
289.804	0.3536
290.179	0.351
290.555	0.3492
290.93	0.3484
291.305	0.3469
291.681	0.3462
292.056	0.3456
292.431	0.343
292.806	0.3412
293.182	0.3396
293.557	0.3377
293.932	0.3341
294.307	0.3311
294.682	0.3314
295.057	0.3309
295.432	0.3308
295.807	0.3287
296.182	0.3278
296.557	0.3248
296.932	0.3209
297.306	0.3177
297.681	0.3143
298.056	0.3133
298.43	0.3127
298.805	0.3118
299.18	0.3118
299.554	0.3108
299.929	0.3113
300.303	0.3088
300.678	0.3054
301.052	0.3032
301.427	0.3031
301.801	0.3046
302.175	0.3022
302.55	0.2999
302.924	0.2971
303.298	0.2965
303.672	0.2947
304.046	0.292
304.421	0.2898
304.795	0.2887
305.169	0.2891
305.543	0.2902
305.917	0.2908
306.291	0.2892
306.664	0.2882
307.038	0.2844
307.412	0.283
307.786	0.2796
308.16	0.2807
308.533	0.2797
308.907	0.2789
309.281	0.2767
309.654	0.2747
310.028	0.2736
310.401	0.2723
310.775	0.2701
311.148	0.2686
311.522	0.2679
311.895	0.2675
312.268	0.2667
312.642	0.2635
313.015	0.2626
313.388	0.2597
313.761	0.2606
314.135	0.2598
314.508	0.2601
314.881	0.259
315.254	0.2571
315.627	0.2555
316	0.255
316.373	0.2537
316.746	0.2524
317.118	0.2488
317.491	0.2491
317.864	0.2489
318.237	0.2482
318.61	0.2456
318.982	0.2441
319.355	0.2425
319.727	0.2419
320.1	0.2403
320.473	0.2382
320.845	0.2389
321.218	0.2379
321.59	0.2388
321.962	0.235
322.335	0.2336
322.707	0.2329
323.079	0.2319
323.452	0.2337
323.824	0.2328
324.196	0.2334
324.568	0.2313
324.94	0.2301
325.312	0.2295
325.684	0.228
326.056	0.2275
326.428	0.2258
326.8	0.2237
327.172	0.2202
327.544	0.2156
327.915	0.2136
328.287	0.2155
328.659	0.2195
329.031	0.2205
329.402	0.2187
329.774	0.2149
330.145	0.2121
330.517	0.2097
330.888	0.2089
331.26	0.2088
331.631	0.2099
332.003	0.2095
332.374	0.2079
332.745	0.2062
333.117	0.2041
333.488	0.2034
333.859	0.2032
334.23	0.2036
334.601	0.2039
334.972	0.2053
335.343	0.2043
335.714	0.203
336.085	0.1997
336.456	0.1988
336.827	0.1988
337.198	0.1994
337.569	0.1967
337.94	0.1927
338.31	0.1897
338.681	0.1901
339.052	0.1925
339.422	0.1908
339.793	0.1906
340.164	0.1877
340.534	0.1891
340.905	0.1871
341.275	0.187
341.645	0.1836
342.016	0.1848
342.386	0.185
342.756	0.1867
343.127	0.1854
343.497	0.1843
343.867	0.1835
344.237	0.1834
344.607	0.1818
344.977	0.18
345.347	0.1788
345.717	0.1786
346.087	0.1781
346.457	0.1782
346.827	0.1774
347.197	0.1773
347.567	0.1738
347.936	0.1727
348.306	0.1723
348.676	0.1733
349.046	0.1735
349.415	0.1726
349.785	0.1725
350.154	0.1705
350.524	0.17
350.893	0.1679
351.263	0.1694
351.632	0.169
352.001	0.1677
352.371	0.1655
352.74	0.1633
353.109	0.1624
353.478	0.1615
353.847	0.1624
354.217	0.1654
354.586	0.1637
354.955	0.1615
355.324	0.1593
355.693	0.1599
356.062	0.1595
356.43	0.1603
356.799	0.1593
357.168	0.1582
357.537	0.1571
357.906	0.1578
358.274	0.1582
358.643	0.155
359.011	0.1529
359.38	0.1519
359.749	0.153
360.117	0.1519
360.486	0.1514
360.854	0.15
361.222	0.1501
361.591	0.1494
361.959	0.1484
362.327	0.1468
362.695	0.1473
363.064	0.1482
363.432	0.149
363.8	0.1466
364.168	0.1438
364.536	0.1432
364.904	0.1407
365.272	0.1422
365.64	0.1422
366.008	0.1428
366.376	0.1388
366.743	0.1359
367.111	0.1363
367.479	0.1387
367.847	0.1407
368.214	0.1414
368.582	0.1415
368.949	0.1423
369.317	0.1402
369.684	0.1382
370.052	0.1339
370.419	0.1338
370.787	0.1348
371.154	0.137
371.521	0.1355
371.889	0.1335
372.256	0.1307
372.623	0.1317
372.99	0.1309
373.357	0.131
373.724	0.1304
374.091	0.1308
374.458	0.13
374.825	0.1297
375.192	0.1277
375.559	0.1279
375.926	0.1262
376.293	0.126
376.659	0.1244
377.026	0.1233
377.393	0.1245
377.759	0.1253
378.126	0.1264
378.492	0.1241
378.859	0.1234
379.225	0.1206
379.592	0.122
379.958	0.1205
380.325	0.1201
380.691	0.118
381.057	0.1177
381.423	0.1182
381.79	0.1168
382.156	0.1144
382.522	0.1155
382.888	0.1168
383.254	0.1186
383.62	0.1176
383.986	0.116
384.352	0.116
384.718	0.1165
385.084	0.1177
385.449	0.1165
385.815	0.1151
386.181	0.1147
386.547	0.1142
386.912	0.1136
387.278	0.1135
387.643	0.1132
388.009	0.1145
388.374	0.1133
388.74	0.115
389.105	0.1123
389.471	0.1108
389.836	0.1094
390.201	0.1099
390.566	0.1111
390.932	0.1113
391.297	0.1105
391.662	0.1095
392.027	0.1082
392.392	0.1062
392.757	0.1042
393.122	0.1017
393.487	0.1045
393.852	0.1057
394.217	0.1062
394.582	0.1053
394.946	0.1047
395.311	0.1046
395.676	0.103
396.04	0.1041
396.405	0.1041
396.77	0.1033
397.134	0.0992
397.499	0.1004
397.863	0.0997
398.227	0.1015
398.592	0.0983
398.956	0.0992
399.32	0.0967
399.685	0.097
400.049	0.097
400.413	0.0991
400.777	0.0994
401.141	0.0996
401.505	0.0983
401.869	0.0954
402.233	0.0943
402.597	0.0938
402.961	0.0951
403.325	0.0949
403.689	0.0941
404.053	0.0938
404.416	0.0928
404.78	0.0942
405.144	0.0955
405.507	0.0938
405.871	0.0922
406.234	0.0921
406.598	0.0927
406.961	0.0914
407.325	0.0893
407.688	0.0896
408.051	0.091
408.415	0.093
408.778	0.0921
409.141	0.091
409.504	0.0897
409.867	0.0892
410.23	0.0891
410.593	0.0866
410.956	0.0861
411.319	0.087
411.682	0.0856
412.045	0.0841
412.408	0.0819
412.771	0.0862
413.134	0.0852
413.496	0.0839
413.859	0.082
414.222	0.0841
414.584	0.087
414.947	0.0866
415.309	0.085
415.672	0.0851
416.034	0.084
416.396	0.0826
416.759	0.0799
417.121	0.0816
417.483	0.0831
417.846	0.0839
418.208	0.0829
418.57	0.0825
418.932	0.0801
419.294	0.0798
419.656	0.0795
420.018	0.0799
420.38	0.0784
420.742	0.0777
421.104	0.0782
421.466	0.0785
421.827	0.0787
422.189	0.0766
422.551	0.0755
422.912	0.0764
423.274	0.0787
423.636	0.0797
423.997	0.0787
424.359	0.0782
424.72	0.0794
425.081	0.0791
425.443	0.0798
425.804	0.08
426.165	0.0801
426.527	0.0782
426.888	0.0749
427.249	0.0757
427.61	0.0766
427.971	0.0752
428.332	0.0723
428.693	0.0713
429.054	0.0732
429.415	0.0736
429.776	0.0731
430.137	0.072
430.498	0.0718
430.858	0.0742
431.219	0.0732
431.58	0.0728
431.94	0.0715
432.301	0.0722
432.661	0.0712
433.022	0.0694
433.382	0.0697
433.743	0.0729
434.103	0.0738
434.463	0.0728
434.824	0.0714
435.184	0.0718
435.544	0.0744
435.904	0.0733
436.264	0.0726
436.624	0.073
436.985	0.0726
437.345	0.0725
437.704	0.0682
438.064	0.0671
438.424	0.0652
438.784	0.0655
439.144	0.0662
439.504	0.0675
439.863	0.0663
440.223	0.0671
440.583	0.066
440.942	0.0685
441.302	0.0681
441.661	0.0671
442.021	0.0674
442.38	0.0658
442.739	0.0655
443.099	0.0633
443.458	0.066
443.817	0.0676
444.176	0.0699
444.536	0.0685
444.895	0.0677
445.254	0.0644
445.613	0.0644
445.972	0.0658
446.331	0.0661
446.69	0.0634
447.049	0.059
447.407	0.0594
447.766	0.0613
448.125	0.0654
448.484	0.0667
448.842	0.0651
449.201	0.0638
449.559	0.0633
449.918	0.0655
450.276	0.0649
450.635	0.0655
450.993	0.0641
451.352	0.0644
451.71	0.0629
452.068	0.0602
452.426	0.0578
452.785	0.058
453.143	0.0609
453.501	0.0631
453.859	0.0606
454.217	0.0604
454.575	0.0583
454.933	0.0583
455.291	0.0601
455.649	0.061
456.006	0.0602
456.364	0.0579
456.722	0.0603
457.079	0.0613
457.437	0.0615
457.795	0.0623
458.152	0.0631
458.51	0.061
458.867	0.0588
459.225	0.0603
459.582	0.062
459.939	0.0594
460.297	0.0569
460.654	0.0575
461.011	0.0597
461.368	0.0632
461.725	0.0609
462.082	0.0612
462.44	0.0588
462.797	0.0571
463.153	0.0558
463.51	0.055
463.867	0.0584
464.224	0.0598
464.581	0.0595
464.938	0.059
465.294	0.0587
465.651	0.061
466.008	0.0578
466.364	0.0585
466.721	0.0554
467.077	0.0546
467.434	0.0524
467.79	0.0541
468.146	0.0554
468.503	0.0556
468.859	0.0536
469.215	0.0545
469.571	0.0521
469.927	0.0548
470.284	0.0539
470.64	0.0555
470.996	0.0532
471.352	0.0525
471.707	0.0508
472.063	0.0533
472.419	0.0534
472.775	0.0573
473.131	0.0541
473.486	0.0547
473.842	0.0519
474.198	0.0521
474.553	0.0526
474.909	0.0565
475.264	0.0569
475.62	0.0571
475.975	0.0516
476.331	0.0504
476.686	0.0493
477.041	0.049
477.396	0.0482
477.752	0.0481
478.107	0.0526
478.462	0.0534
478.817	0.0532
479.172	0.0509
479.527	0.0495
479.882	0.0508
480.237	0.05
480.591	0.0502
480.946	0.0503
481.301	0.0498
481.656	0.0519
482.01	0.0493
482.365	0.0489
482.72	0.0507
483.074	0.052
483.429	0.0526
483.783	0.0507
484.137	0.0517
484.492	0.0513
484.846	0.0505
485.2	0.0507
485.555	0.0512
485.909	0.0489
486.263	0.0468
486.617	0.0442
486.971	0.0453
487.325	0.0444
487.679	0.0463
488.033	0.0476
488.387	0.0513
488.741	0.0512
489.094	0.0487
489.448	0.0453
489.802	0.0468
490.156	0.048
490.509	0.0495
490.863	0.046
491.216	0.0464
491.57	0.0449
491.923	0.0465
492.277	0.0463
492.63	0.0463
492.983	0.0471
493.337	0.0455
493.69	0.045
494.043	0.0431
494.396	0.0468
494.749	0.0459
495.102	0.0459
495.455	0.0441
495.808	0.047
496.161	0.0488
496.514	0.0479
496.867	0.0464
497.22	0.0451
497.572	0.0443
497.925	0.0444
498.278	0.0433
498.63	0.0446
498.983	0.0435
499.335	0.0447
499.688	0.0444
500.04	0.0439
500.393	0.0437
500.745	0.0423
501.097	0.0424
501.449	0.0433
501.802	0.044
502.154	0.0454
502.506	0.0441
502.858	0.0424
503.21	0.041
503.562	0.0406
503.914	0.0419
504.266	0.0436
504.618	0.0426
504.969	0.0459
505.321	0.0437
505.673	0.045
506.025	0.0424
506.376	0.043
506.728	0.044
507.079	0.0449
507.431	0.0457
507.782	0.0447
508.134	0.0446
508.485	0.0437
508.836	0.0433
509.188	0.0415
509.539	0.0403
509.89	0.0417
510.241	0.04
510.592	0.0409
510.943	0.04
511.294	0.0407
511.645	0.0404
511.996	0.0388
512.347	0.0392
512.698	0.0392
513.049	0.0424
513.399	0.0444
513.75	0.0449
514.101	0.0413
514.451	0.0413
514.802	0.0394
515.152	0.0399
515.503	0.0401
515.853	0.0427
516.203	0.0432
516.554	0.0407
516.904	0.0422
517.254	0.0422
517.604	0.0423
517.955	0.0398
518.305	0.0371
518.655	0.0364
519.005	0.0357
519.355	0.0399
519.705	0.0386
520.055	0.0366
520.404	0.034
520.754	0.036
521.104	0.0385
521.454	0.0389
521.803	0.0393
522.153	0.0388
522.502	0.04
522.852	0.0424
523.201	0.0423
523.551	0.042
523.9	0.0371
524.249	0.0361
524.599	0.0368
524.948	0.039
525.297	0.0381
525.646	0.0356
525.995	0.0344
526.344	0.0358
526.694	0.0363
527.042	0.0379
527.391	0.0358
527.74	0.0361
528.089	0.0358
528.438	0.0378
528.787	0.0368
529.135	0.0356
529.484	0.0342
529.833	0.0358
530.181	0.0326
530.53	0.0323
530.878	0.0307
531.227	0.0352
531.575	0.0366
531.923	0.037
532.271	0.035
532.62	0.0353
532.968	0.0343
533.316	0.0346
533.664	0.0378
534.012	0.0391
534.36	0.0414
534.708	0.0383
535.056	0.0341
535.404	0.0338
535.752	0.0341
536.1	0.0369
536.447	0.0344
536.795	0.0345
537.143	0.036
537.49	0.0376
537.838	0.0377
538.185	0.0377
538.533	0.0367
538.88	0.0368
539.228	0.0361
539.575	0.0352
539.922	0.0337
540.269	0.0341
540.617	0.036
540.964	0.0324
541.311	0.0322
541.658	0.0329
542.005	0.0368
542.352	0.0384
542.699	0.0364
543.045	0.0347
543.392	0.0321
543.739	0.0323
544.086	0.0294
544.432	0.029
544.779	0.0276
545.126	0.0318
545.472	0.0325
545.819	0.0336
546.165	0.0313
546.512	0.0309
546.858	0.031
547.204	0.031
547.55	0.0302
547.897	0.0303
548.243	0.031
548.589	0.033
548.935	0.0315
549.281	0.033
549.627	0.0321
549.973	0.0361
550.319	0.0352
550.665	0.0352
551.01	0.0325
551.356	0.0322
551.702	0.0324
552.048	0.0334
552.393	0.031
552.739	0.0292
553.084	0.0287
553.43	0.0292
553.775	0.029
554.12	0.0273
554.466	0.0281
554.811	0.0293
555.156	0.0278
555.502	0.0276
555.847	0.0288
556.192	0.032
556.537	0.0324
556.882	0.032
557.227	0.0303
557.572	0.032
557.917	0.0334
558.261	0.0354
558.606	0.0362
558.951	0.033
559.295	0.0316
559.64	0.0292
559.985	0.0324
560.329	0.0319
560.674	0.0344
561.018	0.0324
561.363	0.0314
561.707	0.0271
562.051	0.027
562.395	0.0269
562.74	0.0298
563.084	0.0285
563.428	0.0317
563.772	0.0293
564.116	0.0289
564.46	0.0266
564.804	0.0274
565.148	0.0276
565.492	0.0261
565.835	0.0256
566.179	0.0288
566.523	0.031
566.866	0.0302
567.21	0.0278
567.554	0.0273
567.897	0.0307
568.24	0.0314
568.584	0.032
568.927	0.0298
569.271	0.0279
569.614	0.0271
569.957	0.0297
570.3	0.0298
570.643	0.0271
570.986	0.024
571.329	0.0273
571.672	0.0322
572.015	0.0323
572.358	0.0317
572.701	0.0298
573.044	0.0288
573.387	0.0276
573.729	0.0285
574.072	0.0301
574.414	0.0278
574.757	0.0284
575.099	0.0278
575.442	0.0276
575.784	0.0282
576.127	0.0287
576.469	0.0281
576.811	0.0259
577.153	0.0273
577.496	0.0286
577.838	0.0308
578.18	0.027
578.522	0.0258
578.864	0.021
579.206	0.0245
579.548	0.0256
579.889	0.026
580.231	0.0256
580.573	0.0282
580.915	0.0276
581.256	0.0263
581.598	0.0248
581.939	0.0247
582.281	0.0278
582.622	0.0278
582.964	0.0296
583.305	0.026
583.646	0.0279
583.988	0.0288
584.329	0.0297
584.67	0.0272
585.011	0.0255
585.352	0.0232
585.693	0.0237
586.034	0.0249
586.375	0.026
586.716	0.0267
587.057	0.0273
587.398	0.0266
587.738	0.0286
588.079	0.0288
588.42	0.0304
588.76	0.0277
589.101	0.0255
589.441	0.0227
589.782	0.0232
590.122	0.0233
590.463	0.024
590.803	0.0245
591.143	0.0261
591.483	0.027
591.823	0.0257
592.164	0.0249
592.504	0.0253
592.844	0.0254
593.184	0.0249
593.523	0.0247
593.863	0.0257
594.203	0.0248
594.543	0.0248
594.883	0.0248
595.222	0.0253
595.562	0.0278
595.901	0.0265
596.241	0.0264
596.58	0.0249
596.92	0.0247
597.259	0.0248
597.599	0.0251
597.938	0.0254
598.277	0.0267
598.616	0.0249
598.955	0.024
599.295	0.0206
599.634	0.0222
599.973	0.0213
600.312	0.0222
600.65	0.0238
600.989	0.0273
601.328	0.0328
601.667	0.0312
602.005	0.0278
602.344	0.0223
602.683	0.021
603.021	0.0216
603.36	0.0213
603.698	0.0211
604.037	0.0216
604.375	0.0249
604.713	0.0249
605.052	0.0242
605.39	0.0226
605.728	0.0215
606.066	0.0229
606.404	0.0192
606.742	0.0206
607.08	0.019
607.418	0.0218
607.756	0.0228
608.094	0.0234
608.431	0.0249
608.769	0.0243
609.107	0.023
609.444	0.0224
609.782	0.021
610.12	0.0256
610.457	0.0254
610.794	0.0251
611.132	0.0228
611.469	0.021
611.806	0.0217
612.144	0.0219
612.481	0.0218
612.818	0.0239
613.155	0.0212
613.492	0.0217
613.829	0.0215
614.166	0.0257
614.503	0.0289
614.84	0.0259
615.176	0.0234
615.513	0.0228
615.85	0.0218
616.187	0.0245
616.523	0.0223
616.86	0.0209
617.196	0.0182
617.533	0.0216
617.869	0.0241
618.205	0.0256
618.542	0.0241
618.878	0.0223
619.214	0.0218
619.55	0.0201
619.886	0.0237
620.222	0.0197
620.558	0.0198
620.894	0.0203
621.23	0.0212
621.566	0.0197
621.902	0.018
622.238	0.019
622.573	0.0272
622.909	0.0256
623.244	0.0267
623.58	0.021
623.916	0.0215
624.251	0.0199
624.586	0.0213
624.922	0.0201
625.257	0.021
625.592	0.0208
625.927	0.023
626.263	0.0193
626.598	0.0168
626.933	0.0183
627.268	0.0229
627.603	0.0208
627.938	0.0186
628.272	0.0182
628.607	0.0213
628.942	0.0207
629.277	0.0223
629.611	0.0221
629.946	0.0234
630.281	0.0208
630.615	0.0201
630.949	0.0213
631.284	0.0214
631.618	0.023
631.953	0.0233
632.287	0.0209
632.621	0.0213
632.955	0.021
633.289	0.0225
633.623	0.0229
633.957	0.0231
634.291	0.021
634.625	0.0201
634.959	0.0152
635.293	0.0196
635.627	0.0153
635.96	0.0179
636.294	0.0128
636.627	0.0162
636.961	0.0149
637.294	0.013
637.628	0.0144
637.961	0.0162
638.295	0.0168
638.628	0.0113
638.961	0.0131
639.294	0.023
639.628	0.0287
639.961	0.0265
640.294	0.0221
640.627	0.0158
640.96	0.0133
641.293	0.0135
641.625	0.0125
641.958	0.0161
642.291	0.0177
642.624	0.0241
642.956	0.0209
643.289	0.0163
643.621	0.0115
643.954	0.0078
644.286	0.0061
644.619	0.0114
644.951	0.0172
645.283	0.0188
645.616	0.013
645.948	0.0134
646.28	0.0186
646.612	0.0234
646.944	0.0244
647.276	0.0211
647.608	0.0192
647.94	0.0219
648.272	0.0249
648.603	0.0263
648.935	0.0206
649.267	0.0173
649.598	0.0142
649.93	0.0158
650.261	0.017
650.593	0.023
650.924	0.0245
651.256	0.0246
651.587	0.022
651.918	0.0208
652.25	0.0189
652.581	0.0162
652.912	0.0168
653.243	0.0157
653.574	0.0172
653.905	0.019
654.236	0.0241
654.567	0.0241
654.897	0.0198
655.228	0.0227
655.559	0.0222
655.89	0.0251
656.22	0.0186
656.551	0.0195
656.881	0.0157
657.212	0.0119
657.542	0.0117
657.872	0.0126
658.203	0.0188
658.533	0.0261
658.863	0.024
659.193	0.0172
659.523	0.0135
659.853	0.0071
660.183	0.0119
660.513	0.0151
660.843	0.0162
661.173	0.0156
661.503	0.0121
661.833	0.0134
662.162	0.0182
662.492	0.0226
662.822	0.021
663.151	0.0145
663.481	0.0119
663.81	0.007
664.139	0.0133
664.469	0.0136
664.798	0.0187
665.127	0.0145
665.456	0.016
665.785	0.0185
666.114	0.0157
666.443	0.0136
666.772	0.0098
667.101	0.01
667.43	0.0103
667.759	0.0145
668.088	0.0166
668.416	0.0155
668.745	0.0119
669.074	0.0081
669.402	0.0067
669.731	0.0086
670.059	0.0145
670.388	0.0204
670.716	0.0167
671.044	0.0154
671.372	0.0119
671.701	0.0091
672.029	0.0097
672.357	0.0085
672.685	0.0157
673.013	0.0153
673.341	0.0205
673.669	0.0164
673.996	0.0168
674.324	0.0089
674.652	0.0113
674.98	0.0127
675.307	0.0167
675.635	0.0151
675.962	0.016
676.29	0.0134
676.617	0.0163
676.945	0.0148
677.272	0.0205
677.599	0.0181
677.926	0.0183
678.253	0.0176
678.581	0.0171
678.908	0.0157
679.235	0.0149
679.561	0.0162
679.888	0.0176
680.215	0.0201
680.542	0.0205
680.869	0.0188
681.195	0.0164
681.522	0.0171
681.849	0.0184
682.175	0.0169
682.502	0.0171
682.828	0.0176
683.154	0.015
683.481	0.014
683.807	0.011
684.133	0.0136
684.459	0.0138
684.785	0.0165
685.111	0.0149
685.437	0.011
685.763	0.008
686.089	0.005
686.415	0.0084
686.741	0.0113
687.067	0.0168
687.392	0.0131
687.718	0.0119
688.043	0.0108
688.369	0.0112
688.694	0.0151
689.02	0.0134
689.345	0.0216
689.67	0.0163
689.996	0.0204
690.321	0.0158
690.646	0.0173
690.971	0.0143
691.296	0.0124
691.621	0.0073
691.946	0.0095
692.271	0.0097
692.596	0.0173
692.921	0.02
693.245	0.0233
693.57	0.02
693.895	0.0175
694.219	0.0155
694.544	0.0156
694.868	0.0134
695.193	0.0111
695.517	0.0083
695.841	0.0076
696.166	0.0043
696.49	0.006
696.814	0.0108
697.138	0.0155
697.462	0.0168
697.786	0.0146
698.11	0.0124
698.434	0.0122
698.758	0.008
699.081	0.0082
699.405	0.0092
699.729	0.0165
700.052	0.0148
700.376	0.0162
700.7	0.0119
701.023	0.0131
701.346	0.0074
701.67	0.0117
701.993	0.0099
702.316	0.0128
702.639	0.0112
702.963	0.0071
703.286	0.0068
703.609	0.0055
703.932	0.0091
704.255	0.0135
704.578	0.0145
704.9	0.0202
705.223	0.0168
705.546	0.0192
705.868	0.0132
706.191	0.0124
706.514	0.0068
706.836	0.0117
707.159	0.0112
707.481	0.0175
707.803	0.0142
708.126	0.0146
708.448	0.0054
708.77	0.0064
709.092	0.0093
709.414	0.0134
709.736	0.0153
710.058	0.0121
710.38	0.0123
710.702	0.0076
711.024	0.009
711.345	0.0061
711.667	0.0096
711.989	0.0109
712.31	0.0202
712.632	0.0165
712.953	0.0162
713.275	0.009
713.596	0.0139
713.917	0.0138
714.239	0.0113
714.56	0.009
714.881	0.0086
715.202	0.0099
715.523	0.0133
715.844	0.0148
716.165	0.0144
716.486	0.0117
716.807	0.0068
717.128	0.01
717.448	0.0085
717.769	0.0096
718.09	0.0088
718.41	0.0121
718.731	0.0124
719.051	0.0111
719.372	0.013
719.692	0.0116
720.012	0.0159
720.332	0.0113
720.653	0.0163
720.973	0.0137
721.293	0.0113
721.613	0.0085
721.933	0.0116
722.253	0.0144
722.573	0.0138
722.892	0.0088
723.212	0.0044
723.532	0.004
723.851	0.0063
724.171	0.0088
724.491	0.0037
724.81	0.0002
725.129	0.0038
725.449	0.007
725.768	0.0107
726.087	0.0086
726.407	0.0126
726.726	0.0131
727.045	0.0131
727.364	0.0098
727.683	0.0107
728.002	0.0123
728.321	0.0128
728.64	0.0137
728.958	0.0174
729.277	0.0185
729.596	0.0186
729.914	0.0122
730.233	0.0151
730.551	0.0098
730.87	0.0073
731.188	0.0047
731.507	0.0055
731.825	0.008
732.143	0.0073
732.461	0.0088
732.779	0.0123
733.097	0.0116
733.415	0.0103
733.733	0.0107
734.051	0.0109
734.369	0.014
734.687	0.0118
735.005	0.0122
735.322	0.0101
735.64	0.0089
735.957	0.0124
736.275	0.016
736.592	0.0219
736.91	0.0194
737.227	0.0161
737.544	0.0089
737.862	0.0097
738.179	0.0068
738.496	0.0159
738.813	0.0147
739.13	0.0124
739.447	0.0093
739.764	0.0055
740.081	0.0067
740.398	0.0018
740.714	0.0098
741.031	0.0153
741.348	0.0205
741.664	0.0137
741.981	0.0137
742.297	0.0099
742.614	0.0116
742.93	0.0082
743.246	0.0099
743.563	0.0101
743.879	0.0103
744.195	0.0078
744.511	0.0029
744.827	0.005
745.143	0.004
745.459	0.0095
745.775	0.0082
746.091	0.0084
746.406	0.0076
746.722	0.0083
747.038	0.0093
747.353	0.0092
747.669	0.0064
747.984	-0
748.3	-0.0018
748.615	-0.0035
748.93	0.0057
749.246	0.007
749.561	0.0054
749.876	0.0062
750.191	0.0046
750.506	0.0073
750.821	0.0061
751.136	0.0056
751.451	0.0124
751.766	0.013
752.08	0.0099
752.395	0.0062
752.71	0.0016
753.024	0.0055
753.339	0.0089
753.653	0.0132
753.968	0.0118
754.282	0.005
754.596	0.0069
754.911	0.0065
755.225	0.0144
755.539	0.0085
755.853	0.0094
756.167	0.0058
756.481	0.0073
756.795	0.0066
757.109	0.0071
757.423	0.01
757.736	0.0136
758.05	0.0136
758.364	0.0169
758.677	0.012
758.991	0.0152
759.304	0.0088
759.618	0.0172
759.931	0.0139
760.244	0.0167
760.558	0.0101
760.871	0.0074
761.184	0.0038
761.497	0.0067
761.81	0.0086
762.123	0.0075
762.436	0.0055
762.749	0.0059
763.062	0.0079
763.374	0.0034
763.687	0.0029
764	0.0049
764.312	0.0131
764.625	0.011
764.937	0.0084
765.25	0.0043
765.562	0.0088
765.874	0.0074
766.186	0.0056
766.499	0.004
766.811	0.0047
767.123	0.0047
767.435	0.0035
767.747	0.0092
768.059	0.0126
768.37	0.0127
768.682	0.0101
768.994	0.0024
769.306	-0.0007
769.617	0.0001
769.929	0.0084
770.24	0.0145
770.552	0.0081
770.863	0.0037
771.174	0.0057
771.486	0.0085
771.797	0.0076
772.108	0.0009
772.419	0.0023
772.73	0.0052
773.041	0.0084
773.352	0.0079
773.663	0.0076
773.974	0.0095
774.285	0.0095
774.595	0.0071
774.906	0.0056
775.217	0.0106
775.527	0.0135
775.838	0.0119
776.148	0.0042
776.458	0.0018
776.769	0.0058
777.079	0.0084
777.389	0.006
777.699	0.0038
778.009	-0.0002
778.319	-0
778.629	0.0021
778.939	0.0067
779.249	0.0105
779.559	0.0061
779.869	0.0001
780.178	-0.0044
780.488	-0.0049
780.798	0.0008
781.107	0.0032
781.417	0.0006
781.726	-0.001
782.035	-0.0022
782.345	0.0063
782.654	0.006
782.963	0.0126
783.272	0.0113
783.581	0.0115
783.89	0.0095
784.199	0.0089
784.508	0.0059
784.817	0.0009
785.126	-0.0074
785.434	-0.0003
785.743	0.0055
786.052	0.014
786.36	0.009
786.669	0.0049
786.977	0.005
787.285	0.0038
787.594	0.0051
787.902	0.0043
788.21	0.008
788.518	0.0087
788.826	0.0103
789.135	0.0081
789.442	0.0027
789.75	0.002
790.058	-0.0018
790.366	0.0036
790.674	0.0008
790.981	0.0096
791.289	0.0119
791.597	0.0078
791.904	0.0012
792.212	-0.0016
792.519	0.0008
792.826	0.0039
793.134	0.0059
793.441	0.0112
793.748	0.0099
794.055	0.0082
794.362	0.0035
794.669	0.0057
794.976	0.0047
795.283	0.0044
795.59	0.0068
795.897	0.0054
796.203	0.0043
796.51	-0.0058
796.817	-0.0007
797.123	0.0019
797.43	0.007
797.736	0.0076
798.042	0.0052
798.349	0.006
798.655	0.0034
798.961	0.0021
799.267	-0.0008
799.573	0.001
799.879	0.0032
800.185	0.0081
800.491	0.0115
800.797	0.016
801.103	0.0137
801.408	0.007
801.714	0.0026
802.02	0.0043
802.325	0.0059
802.631	0.0064
802.936	0.0041
803.242	0.004
803.547	0.0055
803.852	0.0043
804.157	0.0068
804.462	0.009
804.768	0.0094
805.073	0.0088
805.378	0.0059
805.682	0.0082
805.987	0.008
806.292	0.0109
806.597	0.0159
806.902	0.0181
807.206	0.0156
807.511	0.0067
807.815	-0.0025
808.12	0.0008
808.424	0.0058
808.728	0.0106
809.033	0.0061
809.337	0.002
809.641	-0
809.945	0.0006
810.249	0.0079
810.553	0.0131
810.857	0.0133
811.161	0.0064
811.465	-0.0002
811.768	-0.0027
812.072	-0.0035
812.376	0.0051
812.679	0.0059
812.983	0.0079
813.286	-0.0014
813.59	0.0008
813.893	0.009
814.196	0.015
814.499	0.0195
814.803	0.0078
815.106	-0.002
815.409	-0.0056
815.712	0.0054
816.015	0.0097
816.318	0.0025
816.62	-0.0038
816.923	0.0057
817.226	0.0087
817.528	0.0087
817.831	0.0013
818.133	0.0059
818.436	0.0062
818.738	0.0124
819.041	0.0067
819.343	0.0161
819.645	0.0068
819.947	0.0165
820.249	0.0059
820.551	0.016
820.853	0.0084
821.155	0.0069
821.457	0.0072
821.759	0.0095
822.061	0.0146
822.362	0.0097
822.664	0.0046
822.966	0.0111
823.267	0.0038
823.569	0.0045
823.87	-0.0101
824.171	-0.0051
824.473	-0.0022
824.774	0.0109
825.075	0.0098
825.376	0.0164
825.677	0.0137
825.978	0.0178
826.279	0.0105
826.58	0.0141
826.881	0.0079
827.181	0.0088
827.482	0.0026
827.783	0.0015
828.083	-0.0046
828.384	-0.0048
828.684	-0.0017
828.985	0.0075
829.285	0.0034
829.585	0.0054
829.885	0.0021
830.185	0.0017
830.486	0.0037
830.786	0.0047
831.086	0.0111
831.385	0.0056
831.685	-0.002
831.985	-0.0106
832.285	-0.0116
832.585	-0.0019
832.884	0.0009
833.184	0.007
833.483	-0.0034
833.783	0.0024
834.082	-0.0033
834.381	0.0112
834.681	0.0068
834.98	0.0162
835.279	0.0023
835.578	0.0018
835.877	-0.0013
836.176	0.0006
836.475	0.0069
836.774	0.0027
837.072	0.0059
837.371	0.0067
837.67	0.0125
837.968	0.0094
838.267	0.0042
838.565	0.0026
838.864	0.0039
839.162	-0.0022
839.46	-0.0199
839.759	-0.0108
840.057	-0.0017
840.355	0.0109
840.653	-0.0012
840.951	-0.0024
841.249	0.0029
841.547	0.009
841.845	0.0095
842.142	0.0152
842.44	-0.0045
842.738	-0.0113
843.035	-0.0208
843.333	-0.0041
843.63	-0.0014
843.928	0.0085
844.225	0.0136
844.522	0.0156
844.82	-0.0012
845.117	0.0015
845.414	0.0017
845.711	0.0121
846.008	0.0076
846.305	0.0007
846.602	-0.0131
846.898	-0.0095
847.195	-0.0065
847.492	0.0033
847.788	-0.0073
848.085	-0.0048
848.382	-0.0013
848.678	-0.0002
848.974	-0.0051
849.271	0.0064
849.567	0.0166
849.863	0.0186
850.159	0.0015
850.455	0.0004
850.751	0.0044
851.047	0.0164
851.343	0.0094
851.639	0.0166
851.935	0.0036
852.23	0.0052
852.526	-0.0096
852.822	-0.0098
853.117	-0.0107
853.413	0.0008
853.708	0.0018
854.003	0.0261
854.299	0.0362
854.594	0.0331
854.889	0.0026
855.184	-0.0091
855.479	0.0032
855.774	0.019
856.069	0.0111
856.364	0.0153
856.659	0.0042
856.954	0.0281
857.248	0.0125
857.543	0.0294
857.837	0.0067
858.132	0.0163
858.426	-0.0077
858.721	-0.0078
859.015	-0.0107
859.309	-0.006
859.604	0.0007
859.898	0.0019
860.192	0.0185
860.486	0.0177
860.78	0.0135
861.074	0.0105
861.367	0.0079
861.661	0.0014
861.955	0.0079
862.248	0.0102
862.542	0.0054
862.836	-0.0028
863.129	-0.0122
863.422	0.0045
863.716	0.0042
864.009	0.0193
864.302	-0.001
864.595	-0.0221
864.889	-0.0386
865.182	-0.0388
865.475	-0.0126
865.767	-0.0138
866.06	0.0035
866.353	-0.005
866.646	0.0149
866.938	-0.0015
867.231	-0.0143
867.524	-0.0052
867.816	0.0273
868.109	0.0512
868.401	0.0312
868.693	0.0038
868.985	-0.0137
869.278	-0.0169
869.57	-0.006
869.862	-0.0176
870.154	-0.0071
870.446	-0.0115
870.738	0.0025
871.029	-0.0257
871.321	-0.0107
871.613	-0.0079
871.904	0.0099
872.196	-0.0029
872.487	0.006
872.779	0.0049
873.07	0.0148
873.362	0.0218
873.653	0.0521
873.944	0.0472
874.235	0.0258
874.526	-0.0174
874.817	-0.029
875.108	-0.0239
875.399	-0.0034
875.69	0.0369
875.981	0.035
876.271	0.025
876.562	-0.0055
876.853	0.0043
877.143	-0.0114
877.434	-0.0106
877.724	-0.0334
878.014	0.0082
878.305	0.0048
878.595	0.0394
878.885	0.0433
879.175	0.0517
879.465	0.0267
879.755	0.0233
880.045	0.0237
880.335	0.0235
880.624	0.0026
880.914	0.0026
