Data from 38SS01OI_072017_1a_Absorbance_16-45-28-772.txt Node
Date: Fri Jul 28 16:45:28 MDT 2017
User: Tank Lab
Spectrometer: FLMS01220
Trigger mode: 0
Integration Time (sec): 1.000000E-1
Scans to average: 10
Electric dark correction enabled: true
Nonlinearity correction enabled: false
Boxcar width: 1
XAxis mode: Wavelengths
Number of Pixels in Spectrum: 2048
>>>>>Begin Spectral Data<<<<<
179.47	1.4574
179.856	1.4574
180.241	-0
180.626	-0
181.011	0.0609
181.396	0.1801
181.781	-0
182.166	-1.1347
182.551	0.083
182.936	0.5082
183.321	0.0217
183.706	-0.0581
184.091	-0.6753
184.476	-0.0894
184.86	-0.2156
185.245	-1.0351
185.63	-0.4557
186.015	-0.4572
186.399	-0.3157
186.784	0.4597
187.169	0.3383
187.553	0.0657
187.938	-0.2822
188.322	0.195
188.707	0.1994
189.091	0.209
189.475	0.2674
189.86	0.2595
190.244	0.2837
190.629	0.2968
191.013	0.3729
191.397	0.4598
191.781	0.5561
192.165	0.5995
192.55	0.6338
192.934	0.6844
193.318	0.703
193.702	0.7394
194.086	0.7655
194.47	0.8051
194.854	0.8258
195.238	0.8463
195.622	0.8881
196.006	0.8844
196.389	0.8606
196.773	0.8756
197.157	0.9003
197.541	0.9341
197.924	0.894
198.308	0.9098
198.692	0.9182
199.075	0.9462
199.459	0.9364
199.843	0.9286
200.226	0.9304
200.61	0.9463
200.993	0.9595
201.376	0.9476
201.76	0.9356
202.143	0.9274
202.527	0.9277
202.91	0.9219
203.293	0.9173
203.676	0.9186
204.059	0.9217
204.443	0.9261
204.826	0.918
205.209	0.9264
205.592	0.9283
205.975	0.9257
206.358	0.922
206.741	0.921
207.124	0.936
207.507	0.9242
207.89	0.9144
208.273	0.9034
208.655	0.8941
209.038	0.8873
209.421	0.8845
209.804	0.8819
210.186	0.8907
210.569	0.8995
210.951	0.908
211.334	0.8991
211.717	0.8897
212.099	0.8825
212.482	0.888
212.864	0.8826
213.246	0.8782
213.629	0.8753
214.011	0.8765
214.393	0.8803
214.776	0.8717
215.158	0.8713
215.54	0.8661
215.922	0.8652
216.305	0.854
216.687	0.842
217.069	0.8281
217.451	0.8215
217.833	0.8201
218.215	0.8275
218.597	0.8236
218.979	0.8232
219.361	0.8107
219.742	0.8054
220.124	0.7989
220.506	0.7922
220.888	0.791
221.27	0.7868
221.651	0.7865
222.033	0.7756
222.415	0.7664
222.796	0.7586
223.178	0.7563
223.559	0.7532
223.941	0.7415
224.322	0.736
224.704	0.7267
225.085	0.7281
225.466	0.7225
225.848	0.7202
226.229	0.7183
226.61	0.7168
226.992	0.7119
227.373	0.7035
227.754	0.6967
228.135	0.6901
228.516	0.6874
228.897	0.6821
229.278	0.6803
229.659	0.6757
230.04	0.6727
230.421	0.6659
230.802	0.6603
231.183	0.6574
231.564	0.6573
231.944	0.6516
232.325	0.645
232.706	0.6404
233.087	0.6373
233.467	0.6357
233.848	0.6304
234.229	0.63
234.609	0.6276
234.99	0.6247
235.37	0.6191
235.751	0.614
236.131	0.6101
236.511	0.6109
236.892	0.6089
237.272	0.6073
237.652	0.6029
238.033	0.5992
238.413	0.5969
238.793	0.5939
239.173	0.5918
239.553	0.5874
239.933	0.5843
240.313	0.582
240.694	0.5803
241.074	0.5748
241.453	0.5706
241.833	0.566
242.213	0.5645
242.593	0.5605
242.973	0.5611
243.353	0.5593
243.732	0.5605
244.112	0.5572
244.492	0.5548
244.872	0.553
245.251	0.5487
245.631	0.546
246.01	0.5437
246.39	0.5425
246.769	0.5429
247.149	0.54
247.528	0.5402
247.908	0.5351
248.287	0.5342
248.666	0.533
249.045	0.5329
249.425	0.5296
249.804	0.5269
250.183	0.5264
250.562	0.525
250.941	0.5242
251.32	0.5228
251.699	0.5218
252.078	0.5173
252.457	0.5144
252.836	0.5117
253.215	0.5127
253.594	0.5135
253.973	0.512
254.352	0.5096
254.731	0.5059
255.109	0.5036
255.488	0.5019
255.867	0.5003
256.245	0.4988
256.624	0.4972
257.002	0.4943
257.381	0.4935
257.759	0.4896
258.138	0.4894
258.516	0.4884
258.895	0.4894
259.273	0.4891
259.651	0.4887
260.03	0.4882
260.408	0.4856
260.786	0.4836
261.164	0.4806
261.542	0.48
261.921	0.4776
262.299	0.4788
262.677	0.4764
263.055	0.4762
263.433	0.4728
263.811	0.4726
264.188	0.4698
264.566	0.4673
264.944	0.464
265.322	0.4633
265.7	0.4636
266.077	0.462
266.455	0.4578
266.833	0.4555
267.21	0.4545
267.588	0.453
267.966	0.4506
268.343	0.449
268.721	0.4491
269.098	0.4468
269.475	0.4431
269.853	0.4404
270.23	0.4385
270.607	0.4379
270.985	0.4379
271.362	0.4353
271.739	0.4332
272.116	0.4301
272.494	0.4292
272.871	0.4293
273.248	0.428
273.625	0.4243
274.002	0.42
274.379	0.4177
274.756	0.4181
275.132	0.4162
275.509	0.4157
275.886	0.414
276.263	0.4115
276.64	0.4087
277.016	0.4048
277.393	0.4052
277.77	0.4001
278.146	0.4004
278.523	0.3981
278.899	0.398
279.276	0.3949
279.652	0.3928
280.029	0.3915
280.405	0.389
280.782	0.3857
281.158	0.3833
281.534	0.3812
281.91	0.3791
282.287	0.3772
282.663	0.3771
283.039	0.3765
283.415	0.3732
283.791	0.3698
284.167	0.3659
284.543	0.3658
284.919	0.3646
285.295	0.3643
285.671	0.3615
286.047	0.3587
286.423	0.3572
286.799	0.3581
287.174	0.3578
287.55	0.3549
287.926	0.3534
288.301	0.3514
288.677	0.3515
289.053	0.3479
289.428	0.3451
289.804	0.3415
290.179	0.3395
290.555	0.3386
290.93	0.3379
291.305	0.3351
291.681	0.3339
292.056	0.3327
292.431	0.333
292.806	0.3328
293.182	0.3305
293.557	0.327
293.932	0.3235
294.307	0.3215
294.682	0.3205
295.057	0.3203
295.432	0.3199
295.807	0.319
296.182	0.3152
296.557	0.3128
296.932	0.3126
297.306	0.3121
297.681	0.3109
298.056	0.3064
298.43	0.3046
298.805	0.3019
299.18	0.3021
299.554	0.3012
299.929	0.3012
300.303	0.2983
300.678	0.2944
301.052	0.2934
301.427	0.2933
301.801	0.2941
302.175	0.2909
302.55	0.2884
302.924	0.2873
303.298	0.2856
303.672	0.286
304.046	0.2841
304.421	0.2833
304.795	0.2822
305.169	0.2825
305.543	0.2799
305.917	0.2766
306.291	0.2735
306.664	0.2753
307.038	0.2742
307.412	0.2739
307.786	0.2699
308.16	0.2687
308.533	0.2652
308.907	0.2654
309.281	0.2665
309.654	0.2668
310.028	0.2659
310.401	0.2621
310.775	0.2608
311.148	0.2586
311.522	0.2583
311.895	0.2562
312.268	0.2555
312.642	0.2538
313.015	0.2539
313.388	0.2533
313.761	0.252
314.135	0.2505
314.508	0.2492
314.881	0.2482
315.254	0.2463
315.627	0.2454
316	0.2446
316.373	0.2437
316.746	0.2432
317.118	0.2414
317.491	0.2401
317.864	0.2392
318.237	0.2397
318.61	0.2396
318.982	0.2376
319.355	0.2352
319.727	0.2341
320.1	0.2336
320.473	0.2321
320.845	0.2313
321.218	0.2278
321.59	0.2278
321.962	0.2261
322.335	0.2256
322.707	0.2247
323.079	0.2229
323.452	0.2229
323.824	0.222
324.196	0.2211
324.568	0.2194
324.94	0.2178
325.312	0.2185
325.684	0.2174
326.056	0.2162
326.428	0.2136
326.8	0.2115
327.172	0.2098
327.544	0.208
327.915	0.2094
328.287	0.2103
328.659	0.2126
329.031	0.2138
329.402	0.2101
329.774	0.2062
330.145	0.2008
330.517	0.2006
330.888	0.1986
331.26	0.1997
331.631	0.1988
332.003	0.2002
332.374	0.1974
332.745	0.196
333.117	0.1945
333.488	0.194
333.859	0.1935
334.23	0.1912
334.601	0.1912
334.972	0.1915
335.343	0.1916
335.714	0.1897
336.085	0.1881
336.456	0.1866
336.827	0.1861
337.198	0.1848
337.569	0.183
337.94	0.1817
338.31	0.1809
338.681	0.1807
339.052	0.1817
339.422	0.1813
339.793	0.181
340.164	0.1805
340.534	0.1804
340.905	0.1794
341.275	0.1767
341.645	0.1744
342.016	0.1758
342.386	0.1766
342.756	0.1778
343.127	0.1765
343.497	0.1733
343.867	0.1724
344.237	0.1709
344.607	0.1701
344.977	0.1707
345.347	0.1705
345.717	0.1713
346.087	0.1673
346.457	0.1671
346.827	0.1676
347.197	0.1687
347.567	0.1672
347.936	0.1655
348.306	0.1655
348.676	0.1643
349.046	0.165
349.415	0.1619
349.785	0.1624
350.154	0.1605
350.524	0.1632
350.893	0.1605
351.263	0.1604
351.632	0.1571
352.001	0.1557
352.371	0.1553
352.74	0.1543
353.109	0.1542
353.478	0.1541
353.847	0.154
354.217	0.1561
354.586	0.1519
354.955	0.1513
355.324	0.1505
355.693	0.1536
356.062	0.1533
356.43	0.1517
356.799	0.1482
357.168	0.1478
357.537	0.1479
357.906	0.148
358.274	0.1467
358.643	0.143
359.011	0.1442
359.38	0.1429
359.749	0.1431
360.117	0.1411
360.486	0.142
360.854	0.1418
361.222	0.1416
361.591	0.14
361.959	0.139
362.327	0.138
362.695	0.137
363.064	0.1377
363.432	0.1386
363.8	0.1385
364.168	0.1379
364.536	0.1363
364.904	0.1355
365.272	0.1343
365.64	0.131
366.008	0.1323
366.376	0.1324
366.743	0.133
367.111	0.1302
367.479	0.1282
367.847	0.1302
368.214	0.1318
368.582	0.1325
368.949	0.1314
369.317	0.1283
369.684	0.1267
370.052	0.1254
370.419	0.1262
370.787	0.1285
371.154	0.1296
371.521	0.1293
371.889	0.1264
372.256	0.1239
372.623	0.1234
372.99	0.1233
373.357	0.123
373.724	0.1232
374.091	0.1239
374.458	0.123
374.825	0.1221
375.192	0.1202
375.559	0.1204
375.926	0.1192
376.293	0.1178
376.659	0.1167
377.026	0.1164
377.393	0.1176
377.759	0.1167
378.126	0.1162
378.492	0.1167
378.859	0.1178
379.225	0.1169
379.592	0.1154
379.958	0.1133
380.325	0.1137
380.691	0.1122
381.057	0.1121
381.423	0.1094
381.79	0.1099
382.156	0.1083
382.522	0.1099
382.888	0.1092
383.254	0.1096
383.62	0.1096
383.986	0.1101
384.352	0.1076
384.718	0.1069
385.084	0.1055
385.449	0.1078
385.815	0.107
386.181	0.1061
386.547	0.1072
386.912	0.1061
387.278	0.105
387.643	0.1031
388.009	0.1034
388.374	0.1034
388.74	0.1025
389.105	0.1005
389.471	0.1003
389.836	0.1004
390.201	0.1016
390.566	0.1017
390.932	0.1006
391.297	0.0994
391.662	0.0976
392.027	0.0965
392.392	0.0956
392.757	0.0945
393.122	0.0944
393.487	0.0939
393.852	0.0945
394.217	0.0945
394.582	0.098
394.946	0.0977
395.311	0.0968
395.676	0.0925
396.04	0.0942
396.405	0.0938
396.77	0.0932
397.134	0.0911
397.499	0.0917
397.863	0.0926
398.227	0.0927
398.592	0.0891
398.956	0.0902
399.32	0.0892
399.685	0.0913
400.049	0.0908
400.413	0.0904
400.777	0.0883
401.141	0.0886
401.505	0.0894
401.869	0.0893
402.233	0.0855
402.597	0.083
402.961	0.0838
403.325	0.0876
403.689	0.0867
404.053	0.0877
404.416	0.0844
404.78	0.0841
405.144	0.0845
405.507	0.0854
405.871	0.0877
406.234	0.0856
406.598	0.0844
406.961	0.0815
407.325	0.081
407.688	0.0799
408.051	0.0814
408.415	0.0827
408.778	0.0825
409.141	0.0821
409.504	0.079
409.867	0.079
410.23	0.0798
410.593	0.0819
410.956	0.0812
411.319	0.0798
411.682	0.0772
412.045	0.0782
412.408	0.0764
412.771	0.0791
413.134	0.0792
413.496	0.0782
413.859	0.0759
414.222	0.0755
414.584	0.0786
414.947	0.0796
415.309	0.0772
415.672	0.0775
416.034	0.0785
416.396	0.0774
416.759	0.075
417.121	0.073
417.483	0.0744
417.846	0.0752
418.208	0.0756
418.57	0.0747
418.932	0.07
419.294	0.0687
419.656	0.0687
420.018	0.0729
420.38	0.0727
420.742	0.0724
421.104	0.0718
421.466	0.0691
421.827	0.0676
422.189	0.0658
422.551	0.0674
422.912	0.0691
423.274	0.0697
423.636	0.0716
423.997	0.0732
424.359	0.0739
424.72	0.0722
425.081	0.0711
425.443	0.071
425.804	0.0725
426.165	0.0721
426.527	0.0704
426.888	0.0673
427.249	0.0664
427.61	0.0665
427.971	0.0669
428.332	0.066
428.693	0.0673
429.054	0.0683
429.415	0.0684
429.776	0.0645
430.137	0.0621
430.498	0.0617
430.858	0.0649
431.219	0.0646
431.58	0.0656
431.94	0.0661
432.301	0.0656
432.661	0.0628
433.022	0.0614
433.382	0.0624
433.743	0.0651
434.103	0.0657
434.463	0.0661
434.824	0.0628
435.184	0.0616
435.544	0.061
435.904	0.0641
436.264	0.064
436.624	0.0637
436.985	0.0619
437.345	0.0625
437.704	0.0617
438.064	0.0616
438.424	0.0586
438.784	0.0581
439.144	0.0591
439.504	0.0602
439.863	0.0602
440.223	0.058
440.583	0.0565
440.942	0.0566
441.302	0.0583
441.661	0.0581
442.021	0.0594
442.38	0.0577
442.739	0.0581
443.099	0.055
443.458	0.058
443.817	0.0584
444.176	0.0596
444.536	0.0566
444.895	0.059
445.254	0.0573
445.613	0.0571
445.972	0.0558
446.331	0.0561
446.69	0.0547
447.049	0.0505
447.407	0.052
447.766	0.0524
448.125	0.0559
448.484	0.054
448.842	0.0553
449.201	0.0564
449.559	0.0573
449.918	0.0598
450.276	0.0582
450.635	0.0601
450.993	0.056
451.352	0.0559
451.71	0.0553
452.068	0.0527
452.426	0.0507
452.785	0.051
453.143	0.0536
453.501	0.0571
453.859	0.0554
454.217	0.0558
454.575	0.0526
454.933	0.0512
455.291	0.0538
455.649	0.0538
456.006	0.052
456.364	0.0522
456.722	0.0545
457.079	0.0569
457.437	0.0538
457.795	0.0537
458.152	0.0544
458.51	0.053
458.867	0.051
459.225	0.0494
459.582	0.0491
459.939	0.0492
460.297	0.0495
460.654	0.052
461.011	0.0511
461.368	0.0539
461.725	0.0523
462.082	0.0528
462.44	0.0474
462.797	0.0463
463.153	0.0476
463.51	0.0492
463.867	0.0516
464.224	0.0525
464.581	0.054
464.938	0.0527
465.294	0.0525
465.651	0.052
466.008	0.0508
466.364	0.0517
466.721	0.0515
467.077	0.0503
467.434	0.0481
467.79	0.0491
468.146	0.0506
468.503	0.0506
468.859	0.0497
469.215	0.0486
469.571	0.0447
469.927	0.0454
470.284	0.0469
470.64	0.0497
470.996	0.0464
471.352	0.0438
471.707	0.0418
472.063	0.0453
472.419	0.0484
472.775	0.052
473.131	0.0535
473.486	0.0514
473.842	0.0497
474.198	0.0469
474.553	0.0452
474.909	0.0461
475.264	0.0441
475.62	0.0469
475.975	0.0438
476.331	0.0461
476.686	0.047
477.041	0.0476
477.396	0.0441
477.752	0.0427
478.107	0.0428
478.462	0.0437
478.817	0.0441
479.172	0.0468
479.527	0.0456
479.882	0.0433
480.237	0.0392
480.591	0.0392
480.946	0.0419
481.301	0.0436
481.656	0.0455
482.01	0.0439
482.365	0.0452
482.72	0.0455
483.074	0.0457
483.429	0.0446
483.783	0.0427
484.137	0.0424
484.492	0.0421
484.846	0.0428
485.2	0.0437
485.555	0.043
485.909	0.0434
486.263	0.0423
486.617	0.0433
486.971	0.0427
487.325	0.0428
487.679	0.0423
488.033	0.0423
488.387	0.0444
488.741	0.0441
489.094	0.0424
489.448	0.0392
489.802	0.0401
490.156	0.0412
490.509	0.0419
490.863	0.0403
491.216	0.0395
491.57	0.0392
491.923	0.0386
492.277	0.0392
492.63	0.0405
492.983	0.0419
493.337	0.0413
493.69	0.0406
494.043	0.0382
494.396	0.0393
494.749	0.0388
495.102	0.0393
495.455	0.0396
495.808	0.0419
496.161	0.0431
496.514	0.041
496.867	0.0371
497.22	0.0367
497.572	0.0378
497.925	0.0405
498.278	0.0396
498.63	0.0405
498.983	0.0391
499.335	0.0391
499.688	0.0365
500.04	0.0338
500.393	0.0334
500.745	0.034
501.097	0.035
501.449	0.0376
501.802	0.0382
502.154	0.0395
502.506	0.0383
502.858	0.0373
503.21	0.0371
503.562	0.0343
503.914	0.0357
504.266	0.0369
504.618	0.0384
504.969	0.0397
505.321	0.0378
505.673	0.0378
506.025	0.035
506.376	0.0334
506.728	0.035
507.079	0.0358
507.431	0.0375
507.782	0.0353
508.134	0.0344
508.485	0.0337
508.836	0.0331
509.188	0.0327
509.539	0.0339
509.89	0.037
510.241	0.0369
510.592	0.0349
510.943	0.0321
511.294	0.0343
511.645	0.0361
511.996	0.0373
512.347	0.0351
512.698	0.0334
513.049	0.0348
513.399	0.0369
513.75	0.0376
514.101	0.0354
514.451	0.0354
514.802	0.0352
515.152	0.0339
515.503	0.0338
515.853	0.0345
516.203	0.0349
516.554	0.0332
516.904	0.0341
517.254	0.0351
517.604	0.0369
517.955	0.0364
518.305	0.0351
518.655	0.0326
519.005	0.0313
519.355	0.0335
519.705	0.0338
520.055	0.0317
520.404	0.0286
520.754	0.0279
521.104	0.0306
521.454	0.0326
521.803	0.0336
522.153	0.0337
522.502	0.034
522.852	0.0357
523.201	0.0361
523.551	0.0351
523.9	0.0319
524.249	0.0311
524.599	0.032
524.948	0.0341
525.297	0.0344
525.646	0.0324
525.995	0.0305
526.344	0.0311
526.694	0.034
527.042	0.0328
527.391	0.0289
527.74	0.028
528.089	0.0326
528.438	0.0354
528.787	0.0326
529.135	0.0284
529.484	0.0269
529.833	0.0298
530.181	0.0297
530.53	0.0308
530.878	0.0287
531.227	0.0285
531.575	0.0304
531.923	0.0295
532.271	0.0298
532.62	0.0267
532.968	0.026
533.316	0.0244
533.664	0.0266
534.012	0.0285
534.36	0.0315
534.708	0.029
535.056	0.0284
535.404	0.0301
535.752	0.033
536.1	0.0341
536.447	0.0315
536.795	0.0293
537.143	0.0278
537.49	0.029
537.838	0.0295
538.185	0.0312
538.533	0.0327
538.88	0.032
539.228	0.0293
539.575	0.025
539.922	0.025
540.269	0.0289
540.617	0.0319
540.964	0.0308
541.311	0.0285
541.658	0.028
542.005	0.0292
542.352	0.0291
542.699	0.0283
543.045	0.0279
543.392	0.0294
543.739	0.028
544.086	0.0254
544.432	0.0242
544.779	0.0239
545.126	0.0249
545.472	0.0247
545.819	0.0285
546.165	0.0276
546.512	0.0269
546.858	0.0241
547.204	0.0262
547.55	0.0249
547.897	0.0263
548.243	0.0239
548.589	0.024
548.935	0.0231
549.281	0.0244
549.627	0.0244
549.973	0.0248
550.319	0.0246
550.665	0.0253
551.01	0.0261
551.356	0.0257
551.702	0.0275
552.048	0.0249
552.393	0.0259
552.739	0.0241
553.084	0.0247
553.43	0.0236
553.775	0.0208
554.12	0.0218
554.466	0.0199
554.811	0.0214
555.156	0.0183
555.502	0.0203
555.847	0.0229
556.192	0.024
556.537	0.0244
556.882	0.0221
557.227	0.0225
557.572	0.0218
557.917	0.0257
558.261	0.0246
558.606	0.025
558.951	0.021
559.295	0.0224
559.64	0.0223
559.985	0.0247
560.329	0.023
560.674	0.0258
561.018	0.0251
561.363	0.0258
561.707	0.0235
562.051	0.0206
562.395	0.0216
562.74	0.0219
563.084	0.023
563.428	0.0228
563.772	0.0221
564.116	0.0227
564.46	0.0198
564.804	0.0205
565.148	0.0183
565.492	0.0205
565.835	0.021
566.179	0.0258
566.523	0.0256
566.866	0.0251
567.21	0.0211
567.554	0.0219
567.897	0.0246
568.24	0.0262
568.584	0.0265
568.927	0.0231
569.271	0.0228
569.614	0.0218
569.957	0.0237
570.3	0.0228
570.643	0.0224
570.986	0.02
571.329	0.0233
571.672	0.024
572.015	0.023
572.358	0.0234
572.701	0.0245
573.044	0.0242
573.387	0.0214
573.729	0.0221
574.072	0.0248
574.414	0.0244
574.757	0.0258
575.099	0.0234
575.442	0.0235
575.784	0.0242
576.127	0.0244
576.469	0.024
576.811	0.02
577.153	0.0217
577.496	0.0199
577.838	0.0228
578.18	0.0206
578.522	0.0212
578.864	0.0181
579.206	0.0187
579.548	0.0202
579.889	0.0174
580.231	0.0194
580.573	0.0209
580.915	0.0222
581.256	0.02
581.598	0.0181
581.939	0.0184
582.281	0.0206
582.622	0.0225
582.964	0.0241
583.305	0.0237
583.646	0.0245
583.988	0.0237
584.329	0.0242
584.67	0.0213
585.011	0.0192
585.352	0.0161
585.693	0.0178
586.034	0.0183
586.375	0.019
586.716	0.0173
587.057	0.0187
587.398	0.0164
587.738	0.0216
588.079	0.0209
588.42	0.0231
588.76	0.0194
589.101	0.0193
589.441	0.0188
589.782	0.0208
590.122	0.0202
590.463	0.0199
590.803	0.0196
591.143	0.0212
591.483	0.0207
591.823	0.0172
592.164	0.0164
592.504	0.0166
592.844	0.0162
593.184	0.0164
593.523	0.0156
593.863	0.0213
594.203	0.0205
594.543	0.0209
594.883	0.0184
595.222	0.0184
595.562	0.0207
595.901	0.0227
596.241	0.0218
596.58	0.0212
596.92	0.0201
597.259	0.0209
597.599	0.0221
597.938	0.0178
598.277	0.0192
598.616	0.0167
598.955	0.02
599.295	0.0169
599.634	0.0166
599.973	0.0143
600.312	0.0133
600.65	0.0142
600.989	0.0161
601.328	0.0222
601.667	0.0231
602.005	0.0214
602.344	0.0187
602.683	0.0188
603.021	0.0202
603.36	0.0178
603.698	0.0153
604.037	0.0141
604.375	0.0167
604.713	0.0184
605.052	0.0184
605.39	0.0159
605.728	0.0146
606.066	0.0176
606.404	0.0164
606.742	0.0177
607.08	0.0152
607.418	0.0145
607.756	0.0145
608.094	0.0134
608.431	0.0158
608.769	0.0168
609.107	0.0147
609.444	0.0144
609.782	0.0143
610.12	0.0207
610.457	0.0214
610.794	0.0181
611.132	0.0154
611.469	0.0144
611.806	0.0161
612.144	0.0176
612.481	0.0186
612.818	0.0216
613.155	0.0168
613.492	0.019
613.829	0.0175
614.166	0.022
614.503	0.0216
614.84	0.0216
615.176	0.0193
615.513	0.0172
615.85	0.013
616.187	0.0166
616.523	0.0144
616.86	0.0139
617.196	0.0119
617.533	0.0167
617.869	0.0195
618.205	0.0194
618.542	0.017
618.878	0.0143
619.214	0.0142
619.55	0.0146
619.886	0.0183
620.222	0.0169
620.558	0.0183
620.894	0.0203
621.23	0.0203
621.566	0.0165
621.902	0.0134
622.238	0.0127
622.573	0.0192
622.909	0.0154
623.244	0.0159
623.58	0.0133
623.916	0.0159
624.251	0.0161
624.586	0.0142
624.922	0.0147
625.257	0.0164
625.592	0.0171
625.927	0.0218
626.263	0.0192
626.598	0.0158
626.933	0.0138
627.268	0.0156
627.603	0.0173
627.938	0.0132
628.272	0.0095
628.607	0.0068
628.942	0.0102
629.277	0.016
629.611	0.0169
629.946	0.0188
630.281	0.0144
630.615	0.0163
630.949	0.0121
631.284	0.0107
631.618	0.0092
631.953	0.0117
632.287	0.0151
632.621	0.0172
632.955	0.0163
633.289	0.0163
633.623	0.0153
633.957	0.0158
634.291	0.0116
634.625	0.0091
634.959	0.007
635.293	0.0118
635.627	0.0126
635.96	0.0139
636.294	0.0086
636.627	0.01
636.961	0.0115
637.294	0.0123
637.628	0.0117
637.961	0.0094
638.295	0.0116
638.628	0.0125
638.961	0.0099
639.294	0.0121
639.628	0.0136
639.961	0.0162
640.294	0.0139
640.627	0.0124
640.96	0.0096
641.293	0.0115
641.625	0.0096
641.958	0.0117
642.291	0.0157
642.624	0.0187
642.956	0.0189
643.289	0.0142
643.621	0.0093
643.954	0.0054
644.286	0.0008
644.619	0.0032
644.951	0.0063
645.283	0.0085
645.616	0.0086
645.948	0.0079
646.28	0.0084
646.612	0.0141
646.944	0.0191
647.276	0.0219
647.608	0.0179
647.94	0.0173
648.272	0.0191
648.603	0.0156
648.935	0.0142
649.267	0.016
649.598	0.0188
649.93	0.014
650.261	0.0114
650.593	0.0166
650.924	0.0199
651.256	0.0168
651.587	0.0114
651.918	0.0119
652.25	0.01
652.581	0.0091
652.912	0.0083
653.243	0.0095
653.574	0.0106
653.905	0.0087
654.236	0.0097
654.567	0.0106
654.897	0.0084
655.228	0.0093
655.559	0.0089
655.89	0.0115
656.22	0.0124
656.551	0.0133
656.881	0.0145
657.212	0.0085
657.542	0.0073
657.872	0.0103
658.203	0.018
658.533	0.0243
658.863	0.0199
659.193	0.0139
659.523	0.0111
659.853	0.0043
660.183	0.0069
660.513	0.0053
660.843	0.009
661.173	0.0082
661.503	0.0062
661.833	0.0062
662.162	0.0052
662.492	0.0083
662.822	0.0054
663.151	0.007
663.481	0.0076
663.81	0.0051
664.139	0.0101
664.469	0.0076
664.798	0.0156
665.127	0.0111
665.456	0.0137
665.785	0.0131
666.114	0.0091
666.443	0.0118
666.772	0.0096
667.101	0.0111
667.43	0.0057
667.759	0.0057
668.088	0.0059
668.416	0.0074
668.745	0.0061
669.074	0.004
669.402	-0.0011
669.731	0.0013
670.059	0.0058
670.388	0.017
670.716	0.0138
671.044	0.0152
671.372	0.0103
671.701	0.0072
672.029	0.0069
672.357	0.0083
672.685	0.0092
673.013	0.0068
673.341	0.0078
673.669	0.0101
673.996	0.0091
674.324	0.0077
674.652	0.0078
674.98	0.009
675.307	0.0105
675.635	0.0093
675.962	0.0116
676.29	0.0081
676.617	0.0129
676.945	0.0121
677.272	0.0141
677.599	0.0136
677.926	0.0104
678.253	0.0105
678.581	0.0056
678.908	0.0044
679.235	0.0025
679.561	0.0068
679.888	0.0134
680.215	0.0143
680.542	0.0143
680.869	0.01
681.195	0.0123
681.522	0.0109
681.849	0.0075
682.175	0.0062
682.502	0.0053
682.828	0.0098
683.154	0.0072
683.481	0.0074
683.807	0.0062
684.133	0.0077
684.459	0.0112
684.785	0.009
685.111	0.0066
685.437	0.0018
685.763	0.0017
686.089	0.0019
686.415	0.0018
686.741	0.0039
687.067	0.01
687.392	0.0088
687.718	0.0084
688.043	0.0057
688.369	0.0091
688.694	0.012
689.02	0.009
689.345	0.0131
689.67	0.0083
689.996	0.0127
690.321	0.008
690.646	0.0103
690.971	0.0069
691.296	0.0073
691.621	0.0082
691.946	0.0119
692.271	0.0101
692.596	0.0098
692.921	0.01
693.245	0.0148
693.57	0.0168
693.895	0.0171
694.219	0.0156
694.544	0.0108
694.868	0.0089
695.193	0.0046
695.517	0.0067
695.841	0.0019
696.166	0.0041
696.49	0.0053
696.814	0.0109
697.138	0.0102
697.462	0.0066
697.786	0.007
698.11	0.009
698.434	0.0058
698.758	0.0049
699.081	0.0039
699.405	0.0101
699.729	0.0094
700.052	0.0035
700.376	0.0032
700.7	0.0038
701.023	0.007
701.346	0.0051
701.67	0.0065
701.993	0.0046
702.316	0.008
702.639	0.0033
702.963	0.0009
703.286	0.0013
703.609	0.0012
703.932	0.0046
704.255	0.0063
704.578	0.011
704.9	0.0138
705.223	0.013
705.546	0.0118
705.868	0.0135
706.191	0.0058
706.514	0.0044
706.836	0.0013
707.159	0.0074
707.481	0.011
707.803	0.0092
708.126	0.0063
708.448	-0.0011
708.77	-0.0004
709.092	0.0037
709.414	0.0072
709.736	0.0076
710.058	0.006
710.38	0.0047
710.702	0.0025
711.024	0.001
711.345	0.0045
711.667	0.0049
711.989	0.0072
712.31	0.0024
712.632	0.0004
712.953	0.001
713.275	0.0054
713.596	0.0106
713.917	0.0083
714.239	0.004
714.56	-0.0013
714.881	0.0034
715.202	-0.0001
715.523	0.0037
715.844	0.0058
716.165	0.0075
716.486	0.0068
716.807	0.0019
717.128	0.0046
717.448	0.0045
717.769	0.0047
718.09	0.0077
718.41	0.0075
718.731	0.0088
719.051	0.0038
719.372	0.0065
719.692	0.0034
720.012	0.0064
720.332	0.0042
720.653	0.0044
720.973	0.0043
721.293	0.0037
721.613	0.0043
721.933	0.0065
722.253	0.0098
722.573	0.009
722.892	0.0065
723.212	0.0032
723.532	0.0012
723.851	0.0008
724.171	0.0015
724.491	-0.001
724.81	-0.0029
725.129	0.0015
725.449	0.0061
725.768	0.0091
726.087	0.005
726.407	0.0072
726.726	0.0085
727.045	0.0119
727.364	0.0107
727.683	0.0104
728.002	0.0051
728.321	0.0042
728.64	0.0039
728.958	0.0086
729.277	0.0109
729.596	0.0119
729.914	0.0083
730.233	0.0085
730.551	0.0056
730.87	0.0074
731.188	0.007
731.507	0.0094
731.825	0.0071
732.143	0.0043
732.461	0.0028
732.779	0.0042
733.097	0.0027
733.415	0.0023
733.733	0.0042
734.051	0.0029
734.369	0.0024
734.687	0.0001
735.005	0.0044
735.322	0.0061
735.64	0.0039
735.957	0.0084
736.275	0.0086
736.592	0.0118
736.91	0.0057
737.227	0.0039
737.544	0.0002
737.862	0.0032
738.179	0.0069
738.496	0.0117
738.813	0.0062
739.13	0.0015
739.447	0.0042
739.764	0.004
740.081	0.0033
740.398	-0.0015
740.714	0.0022
741.031	0.0064
741.348	0.008
741.664	0.0089
741.981	0.0068
742.297	0.0089
742.614	0.0082
742.93	0.0078
743.246	0.0036
743.563	-0.0014
743.879	-0.0071
744.195	-0.0049
744.511	-0.0031
744.827	0.0047
745.143	0.0025
745.459	0.006
745.775	0.0013
746.091	-0.0008
746.406	-0.0028
746.722	-0.0016
747.038	0.0006
747.353	0
747.669	0.0021
747.984	0.0008
748.3	-0.0009
748.615	-0.0039
748.93	0.0016
749.246	0.0068
749.561	0.0098
749.876	0.0092
750.191	0.0017
750.506	-0.0032
750.821	0.001
751.136	0.0074
751.451	0.0107
751.766	0.0059
752.08	0.0027
752.395	0.0035
752.71	0.0038
753.024	0.0072
753.339	0.0087
753.653	0.005
753.968	0.0015
754.282	-0.0008
754.596	0.0069
754.911	0.0061
755.225	0.0104
755.539	0.0014
755.853	0.0048
756.167	0.0048
756.481	0.0084
756.795	0.0083
757.109	0.0084
757.423	0.0096
757.736	0.01
758.05	0.0049
758.364	0.0038
758.677	0.0026
758.991	0.0068
759.304	0.0057
759.618	0.0087
759.931	0.009
760.244	0.0083
760.558	0.0062
760.871	-0.0001
761.184	-0.0012
761.497	0.0013
761.81	0.0061
762.123	0.0065
762.436	0.0023
762.749	0.0016
763.062	0.0035
763.374	0.0009
763.687	-0.0018
764	0.0009
764.312	0.0045
764.625	0.0082
764.937	0.0031
765.25	0.0006
765.562	0.0038
765.874	0.0054
766.186	0.0041
766.499	-0.0019
766.811	-0.0032
767.123	-0.0043
767.435	-0.0032
767.747	-0.0045
768.059	-0.0029
768.37	-0.0028
768.682	-0.0008
768.994	-0.0048
769.306	-0.0035
769.617	-0.0015
769.929	0.0056
770.24	0.0092
770.552	0.0033
770.863	-0.0023
771.174	-0.0037
771.486	0.0011
771.797	0.004
772.108	0.0012
772.419	0.0023
772.73	0.0025
773.041	0.0038
773.352	0.0029
773.663	0.0031
773.974	0.0096
774.285	0.0062
774.595	0.0037
774.906	-0.0003
775.217	0.0033
775.527	0.0056
775.838	0.0042
776.148	0.0032
776.458	0.0043
776.769	0.0039
777.079	0.0037
777.389	0.0034
777.699	0.0021
778.009	0.0004
778.319	-0.0001
778.629	0.0023
778.939	0.0053
779.249	0.0078
779.559	0.0071
779.869	0.0059
780.178	0.0045
780.488	0.0032
780.798	0.0005
781.107	0.0011
781.417	0.0025
781.726	0.0036
782.035	-0.0001
782.345	-0.0003
782.654	0.0009
782.963	0.0027
783.272	-0.0012
783.581	-0.0046
783.89	-0.0026
784.199	0.0025
784.508	-0.0003
784.817	-0.0031
785.126	-0.0105
785.434	-0.0061
785.743	-0.0033
786.052	0.0034
786.36	0.0018
786.669	-0.0023
786.977	-0.0052
787.285	-0.0053
787.594	-0.0022
787.902	-0.0002
788.21	0.0015
788.518	0.004
788.826	0.0036
789.135	0.0071
789.442	0.0024
789.75	0.0035
790.058	-0.003
790.366	-0.0044
790.674	-0.0098
790.981	-0.0054
791.289	-0.0013
791.597	-0.0024
791.904	-0.0067
792.212	-0.0089
792.519	-0.003
792.826	0.0036
793.134	0.0061
793.441	0.0056
793.748	0.0046
794.055	0.0043
794.362	0.0024
794.669	0.0032
794.976	0.0008
795.283	0.0009
795.59	-0.0003
795.897	0.0037
796.203	0.0003
796.51	-0
796.817	-0.0025
797.123	0.0023
797.43	0.0047
797.736	0.0011
798.042	-0.0008
798.349	-0.0041
798.655	-0.0012
798.961	-0.001
799.267	-0.0014
799.573	-0.0049
799.879	-0.0107
800.185	-0.0071
800.491	0.0029
800.797	0.0049
801.103	0.0005
801.408	-0.0025
801.714	0.0025
802.02	0.0053
802.325	0.0065
802.631	-0.0021
802.936	-0.0042
803.242	-0.0104
803.547	-0.0062
803.852	-0.0086
804.157	-0.0056
804.462	-0.0015
804.768	0.0015
805.073	0.001
805.378	-0.0008
805.682	-0.0022
805.987	-0.0046
806.292	-0.0041
806.597	-0.0014
806.902	-0.0039
807.206	-0.0062
807.511	-0.0103
807.815	-0.0096
808.12	-0.01
808.424	-0.0043
808.728	0.0026
809.033	0.0055
809.337	0.0012
809.641	-0.0017
809.945	-0.0028
810.249	-0.0009
810.553	-0.0019
810.857	-0.0064
811.161	-0.0091
811.465	-0.0108
811.768	-0.0058
812.072	-0.0102
812.376	-0.0088
812.679	-0.0127
812.983	-0.0011
813.286	-0.0003
813.59	-0.0017
813.893	-0.0027
814.196	0.0011
814.499	0.006
814.803	0.0001
815.106	-0.008
815.409	-0.0069
815.712	-0.0006
816.015	0.0016
816.318	-0.0006
816.62	-0.0055
816.923	-0.0022
817.226	-0.0069
817.528	-0.0079
817.831	-0.009
818.133	-0.0032
818.436	0.0019
818.738	0.0016
819.041	-0.0049
819.343	-0.0029
819.645	-0.0085
819.947	0.0042
820.249	-0.0005
820.551	0.0003
820.853	0.0011
821.155	-0.0066
821.457	-0.0031
821.759	-0.0145
822.061	-0.002
822.362	-0.0036
822.664	0.0027
822.966	0.0041
823.267	0.0098
823.569	0.0049
823.87	-0.0081
824.171	-0.0112
824.473	-0.0137
824.774	-0.0055
825.075	-0.0045
825.376	-0.0017
825.677	0.0063
825.978	0.0055
826.279	0.0056
826.58	0.0012
826.881	-0.0015
827.181	-0.0028
827.482	-0.0065
827.783	-0.0117
828.083	-0.0104
828.384	-0.0127
828.684	-0.0098
828.985	-0.0079
829.285	-0.0082
829.585	-0.0006
829.885	-0.0021
830.185	-0.0021
830.486	0.0024
830.786	0.0009
831.086	0.0073
831.385	-0.0055
831.685	-0.0132
831.985	-0.0263
832.285	-0.0214
832.585	-0.0108
832.884	-0.0032
833.184	-0.005
833.483	-0.0122
833.783	-0.0158
834.082	-0.0138
834.381	-0.0072
834.681	-0.0063
834.98	-0.0008
835.279	-0.0069
835.578	-0.0077
835.877	-0.0116
836.176	-0.0075
836.475	-0.0006
836.774	-0.0061
837.072	-0.007
837.371	-0.0047
837.67	0.0049
837.968	0.0031
838.267	-0.0078
838.565	-0.0143
838.864	-0.0123
839.162	-0.0129
839.46	-0.0164
839.759	-0.0093
840.057	0.0025
840.355	0.0103
840.653	0.006
840.951	-0.0024
841.249	-0.0089
841.547	0.002
841.845	0.0148
842.142	0.0237
842.44	0.0039
842.738	-0.0089
843.035	-0.0186
843.333	-0.0097
843.63	-0.008
843.928	-0.0017
844.225	0.0037
844.522	0.0001
844.82	-0.0078
845.117	-0.0112
845.414	-0.0045
845.711	0.012
846.008	0.0065
846.305	-0.002
846.602	-0.0195
846.898	-0.0206
847.195	-0.0198
847.492	-0.0104
847.788	-0.0096
848.085	-0.0065
848.382	-0.014
848.678	-0.0164
848.974	-0.024
849.271	-0.0121
849.567	0.0003
849.863	0.0093
850.159	0.0022
850.455	-0.0025
850.751	0
851.047	0.0071
851.343	0.0004
851.639	-0.0007
851.935	-0.0157
852.23	-0.019
852.526	-0.0243
852.822	-0.0232
853.117	-0.0119
853.413	-0.0077
853.708	-0.013
854.003	-0.0059
854.299	0.0048
854.594	0.0145
854.889	-0.0008
855.184	-0.0046
855.479	0.0065
855.774	0.0184
856.069	0.0071
856.364	-0.0059
856.659	-0.0052
856.954	0.0043
857.248	0.0009
857.543	0.0091
857.837	0.0067
858.132	0.0228
858.426	-0.0113
858.721	-0.0206
859.015	-0.0308
859.309	-0.0128
859.604	-0.0088
859.898	0.0033
860.192	0.0108
860.486	0.0003
860.78	-0.0106
861.074	-0.0036
861.367	0.0209
861.661	0.0154
861.955	-0.0025
862.248	-0.0066
862.542	-0.0066
862.836	0.0109
863.129	0.0024
863.422	0.0022
863.716	-0.0185
864.009	-0.0102
864.302	-0.0169
864.595	-0.0082
864.889	-0.0157
865.182	-0.0192
865.475	-0.0076
865.767	-0.0169
866.06	-0.0027
866.353	-0.0204
866.646	-0.0097
866.938	-0.0231
867.231	-0.0218
867.524	-0.0113
867.816	0.0263
868.109	0.0427
868.401	0.0448
868.693	0.028
868.985	-0.0031
869.278	-0.0063
869.57	-0.0159
869.862	-0.0095
870.154	-0.0214
870.446	-0.0199
870.738	-0.0246
871.029	-0.0453
871.321	-0.0321
871.613	-0.0117
871.904	0.0036
872.196	-0.0153
872.487	-0.0305
872.779	-0.0388
873.07	-0.038
873.362	-0.0215
873.653	0.011
873.944	0
874.235	-0.0207
874.526	-0.0401
874.817	-0.0126
875.108	0.0042
875.399	0.0198
875.69	0.0293
875.981	0.0218
876.271	0.0249
876.562	0.0167
876.853	-0.0006
877.143	-0.0223
877.434	-0.0469
877.724	-0.0418
878.014	-0.034
878.305	-0.0259
878.595	0.0121
878.885	0.0273
879.175	0.0479
879.465	-0.0019
879.755	-0.0135
880.045	-0.0465
880.335	-0.0496
880.624	-0.0769
880.914	-0.0769
