Data from 3SS04BU_072217_1b_Absorbance_18-55-11-488.txt Node
Date: Fri Jul 28 18:55:11 MDT 2017
User: Tank Lab
Spectrometer: FLMS01220
Trigger mode: 0
Integration Time (sec): 1.000000E-1
Scans to average: 10
Electric dark correction enabled: true
Nonlinearity correction enabled: false
Boxcar width: 1
XAxis mode: Wavelengths
Number of Pixels in Spectrum: 2048
>>>>>Begin Spectral Data<<<<<
179.47	-0
179.856	-0
180.241	-0
180.626	-0
181.011	-0.2973
181.396	0.0218
181.781	-0.167
182.166	-0
182.551	-0
182.936	-0
183.321	-0
183.706	0.7087
184.091	-0.284
184.476	-0
184.86	-0.5448
185.245	-0.8823
185.63	-0
186.015	-0
186.399	-0
186.784	-0
187.169	-0
187.553	-0
187.938	-0
188.322	-0.1733
188.707	-0.103
189.091	-0.0216
189.475	0.0069
189.86	0.0157
190.244	0.0051
190.629	0.0183
191.013	0.0698
191.397	0.123
191.781	0.1576
192.165	0.1626
192.55	0.1776
192.934	0.1867
193.318	0.2053
193.702	0.2151
194.086	0.211
194.47	0.1981
194.854	0.184
195.238	0.1825
195.622	0.1926
196.006	0.2027
196.389	0.2004
196.773	0.1858
197.157	0.1751
197.541	0.1775
197.924	0.1745
198.308	0.1741
198.692	0.1647
199.075	0.1605
199.459	0.1534
199.843	0.1481
200.226	0.1483
200.61	0.144
200.993	0.1442
201.376	0.1399
201.76	0.1361
202.143	0.1337
202.527	0.1324
202.91	0.1309
203.293	0.1286
203.676	0.1229
204.059	0.1242
204.443	0.121
204.826	0.1236
205.209	0.1221
205.592	0.1239
205.975	0.1198
206.358	0.1179
206.741	0.1156
207.124	0.1194
207.507	0.1158
207.89	0.1144
208.273	0.1114
208.655	0.1128
209.038	0.1107
209.421	0.1093
209.804	0.1106
210.186	0.1118
210.569	0.1107
210.951	0.109
211.334	0.1077
211.717	0.1074
212.099	0.1041
212.482	0.1041
212.864	0.1026
213.246	0.1041
213.629	0.1013
214.011	0.1004
214.393	0.0977
214.776	0.0981
215.158	0.0966
215.54	0.0958
215.922	0.0946
216.305	0.0935
216.687	0.0929
217.069	0.0883
217.451	0.0868
217.833	0.0849
218.215	0.0857
218.597	0.0866
218.979	0.0845
219.361	0.0821
219.742	0.079
220.124	0.0797
220.506	0.0795
220.888	0.077
221.27	0.0742
221.651	0.0728
222.033	0.0721
222.415	0.0694
222.796	0.0687
223.178	0.0679
223.559	0.0675
223.941	0.064
224.322	0.0602
224.704	0.0578
225.085	0.0569
225.466	0.0562
225.848	0.0558
226.229	0.0542
226.61	0.0554
226.992	0.0537
227.373	0.0529
227.754	0.051
228.135	0.0499
228.516	0.049
228.897	0.0462
229.278	0.046
229.659	0.0458
230.04	0.0455
230.421	0.0445
230.802	0.0425
231.183	0.0435
231.564	0.0433
231.944	0.0425
232.325	0.0403
232.706	0.0381
233.087	0.0386
233.467	0.0383
233.848	0.0385
234.229	0.0384
234.609	0.0383
234.99	0.0363
235.37	0.0343
235.751	0.0328
236.131	0.033
236.511	0.0345
236.892	0.0345
237.272	0.0346
237.652	0.0338
238.033	0.0343
238.413	0.0335
238.793	0.0315
239.173	0.0303
239.553	0.0305
239.933	0.031
240.313	0.0322
240.694	0.0306
241.074	0.0291
241.453	0.0278
241.833	0.0293
242.213	0.03
242.593	0.0286
242.973	0.0276
243.353	0.0276
243.732	0.0294
244.112	0.03
244.492	0.0286
244.872	0.0276
245.251	0.028
245.631	0.0289
246.01	0.0287
246.39	0.0269
246.769	0.0271
247.149	0.0269
247.528	0.0282
247.908	0.0274
248.287	0.0286
248.666	0.0268
249.045	0.028
249.425	0.0253
249.804	0.0245
250.183	0.0248
250.562	0.0256
250.941	0.0269
251.32	0.0255
251.699	0.026
252.078	0.0256
252.457	0.0263
252.836	0.0263
253.215	0.027
253.594	0.0259
253.973	0.0258
254.352	0.0252
254.731	0.025
255.109	0.0239
255.488	0.0249
255.867	0.0255
256.245	0.0246
256.624	0.0239
257.002	0.0233
257.381	0.024
257.759	0.0228
258.138	0.0218
258.516	0.0238
258.895	0.0236
259.273	0.0234
259.651	0.021
260.03	0.0208
260.408	0.0223
260.786	0.0229
261.164	0.024
261.542	0.0237
261.921	0.0234
262.299	0.0234
262.677	0.0233
263.055	0.0238
263.433	0.0224
263.811	0.021
264.188	0.0199
264.566	0.0211
264.944	0.0217
265.322	0.0222
265.7	0.0213
266.077	0.0217
266.455	0.0214
266.833	0.022
267.21	0.0218
267.588	0.0221
267.966	0.0225
268.343	0.0233
268.721	0.0233
269.098	0.0216
269.475	0.0213
269.853	0.0209
270.23	0.0215
270.607	0.0193
270.985	0.0203
271.362	0.0194
271.739	0.0208
272.116	0.0203
272.494	0.0205
272.871	0.0201
273.248	0.0208
273.625	0.0206
274.002	0.0193
274.379	0.0172
274.756	0.0166
275.132	0.0169
275.509	0.0175
275.886	0.0169
276.263	0.0178
276.64	0.0173
277.016	0.0186
277.393	0.0182
277.77	0.0178
278.146	0.0176
278.523	0.0169
278.899	0.0157
279.276	0.0146
279.652	0.0149
280.029	0.0164
280.405	0.017
280.782	0.0177
281.158	0.0183
281.534	0.0168
281.91	0.0157
282.287	0.0152
282.663	0.0178
283.039	0.0185
283.415	0.0175
283.791	0.0152
284.167	0.0146
284.543	0.0148
284.919	0.0158
285.295	0.0148
285.671	0.0148
286.047	0.0133
286.423	0.0128
286.799	0.013
287.174	0.012
287.55	0.0111
287.926	0.0102
288.301	0.013
288.677	0.0146
289.053	0.0157
289.428	0.0146
289.804	0.0142
290.179	0.0134
290.555	0.0145
290.93	0.0143
291.305	0.0139
291.681	0.0142
292.056	0.0152
292.431	0.0154
292.806	0.0139
293.182	0.0135
293.557	0.0131
293.932	0.0128
294.307	0.0126
294.682	0.013
295.057	0.0131
295.432	0.0127
295.807	0.0127
296.182	0.0132
296.557	0.0134
296.932	0.0135
297.306	0.0135
297.681	0.0125
298.056	0.0122
298.43	0.0113
298.805	0.0102
299.18	0.0106
299.554	0.0116
299.929	0.0135
300.303	0.0125
300.678	0.0103
301.052	0.0104
301.427	0.0105
301.801	0.0124
302.175	0.0118
302.55	0.0123
302.924	0.0115
303.298	0.011
303.672	0.0122
304.046	0.0129
304.421	0.0137
304.795	0.0122
305.169	0.0122
305.543	0.0108
305.917	0.01
306.291	0.0093
306.664	0.0113
307.038	0.0107
307.412	0.0104
307.786	0.0092
308.16	0.0109
308.533	0.0113
308.907	0.0112
309.281	0.0112
309.654	0.0104
310.028	0.0099
310.401	0.0095
310.775	0.0093
311.148	0.0105
311.522	0.0094
311.895	0.0104
312.268	0.0108
312.642	0.0101
313.015	0.0094
313.388	0.0075
313.761	0.0078
314.135	0.0087
314.508	0.0099
314.881	0.0095
315.254	0.0092
315.627	0.0083
316	0.0095
316.373	0.0075
316.746	0.0091
317.118	0.0083
317.491	0.0096
317.864	0.0087
318.237	0.0083
318.61	0.0077
318.982	0.0062
319.355	0.0069
319.727	0.0076
320.1	0.0079
320.473	0.0068
320.845	0.008
321.218	0.0081
321.59	0.0084
321.962	0.0067
322.335	0.0065
322.707	0.0063
323.079	0.006
323.452	0.0068
323.824	0.0079
324.196	0.0081
324.568	0.0081
324.94	0.007
325.312	0.0094
325.684	0.0093
326.056	0.0102
326.428	0.0084
326.8	0.0072
327.172	0.008
327.544	0.0056
327.915	0.0056
328.287	0.0044
328.659	0.0072
329.031	0.0082
329.402	0.0066
329.774	0.0039
330.145	0.0033
330.517	0.0052
330.888	0.0049
331.26	0.0042
331.631	0.0031
332.003	0.0049
332.374	0.006
332.745	0.0057
333.117	0.0052
333.488	0.0048
333.859	0.0068
334.23	0.0067
334.601	0.0068
334.972	0.0071
335.343	0.0065
335.714	0.0055
336.085	0.0027
336.456	0.0033
336.827	0.005
337.198	0.0075
337.569	0.0066
337.94	0.0049
338.31	0.0043
338.681	0.004
339.052	0.0049
339.422	0.0047
339.793	0.0061
340.164	0.0051
340.534	0.004
340.905	0.0029
341.275	0.0023
341.645	0.0029
342.016	0.0037
342.386	0.0062
342.756	0.0064
343.127	0.0054
343.497	0.0044
343.867	0.0041
344.237	0.0043
344.607	0.0016
344.977	0.0021
345.347	0.0032
345.717	0.0046
346.087	0.0033
346.457	0.0042
346.827	0.0059
347.197	0.0068
347.567	0.0042
347.936	0.0036
348.306	0.0046
348.676	0.0064
349.046	0.007
349.415	0.0052
349.785	0.0056
350.154	0.0046
350.524	0.0057
350.893	0.0031
351.263	0.0031
351.632	0.0015
352.001	0.0026
352.371	0.0015
352.74	0.0019
353.109	0.0033
353.478	0.0046
353.847	0.0048
354.217	0.0034
354.586	0.0019
354.955	0.0026
355.324	0.002
355.693	0.0045
356.062	0.0043
356.43	0.0055
356.799	0.0026
357.168	0.0018
357.537	0.0028
357.906	0.004
358.274	0.0038
358.643	0.0006
359.011	0.0003
359.38	0.0001
359.749	0.0008
360.117	0.0005
360.486	0.0016
360.854	0.0024
361.222	0.002
361.591	0.0006
361.959	-0.0008
362.327	0.0014
362.695	0.002
363.064	0.0022
363.432	0.0009
363.8	-0.0001
364.168	0.0011
364.536	0.0003
364.904	0.0005
365.272	-0.0007
365.64	-0.0012
366.008	-0.001
366.376	-0.0007
366.743	-0.0005
367.111	-0.0001
367.479	0.0001
367.847	0.0011
368.214	0.0008
368.582	0.0004
368.949	0.0023
369.317	0.0007
369.684	-0.0004
370.052	-0.0025
370.419	-0.0011
370.787	0.0023
371.154	0.0034
371.521	0.0056
371.889	0.0035
372.256	0.0015
372.623	-0.0007
372.99	-0.0006
373.357	0.0001
373.724	0.0024
374.091	0.0035
374.458	0.004
374.825	0.0007
375.192	-0.0003
375.559	-0.0011
375.926	-0.0004
376.293	-0.0003
376.659	-0.0001
377.026	0.0006
377.393	0.0008
377.759	0.0006
378.126	0.0017
378.492	0.0009
378.859	-0.0003
379.225	-0.0013
379.592	-0.0002
379.958	0.0004
380.325	-0.0002
380.691	-0.0002
381.057	-0.0001
381.423	0.0003
381.79	-0.0013
382.156	-0.0027
382.522	-0.002
382.888	-0.0003
383.254	0.0032
383.62	0.0033
383.986	0.0029
384.352	0.001
384.718	-0.0006
385.084	-0.0011
385.449	-0.0021
385.815	-0.0006
386.181	0.0003
386.547	0.0021
386.912	0.0013
387.278	0.0012
387.643	0
388.009	0.0007
388.374	-0.0003
388.74	0.0001
389.105	-0.001
389.471	-0.0012
389.836	-0.0011
390.201	0.0006
390.566	0.0018
390.932	0.0028
391.297	0.0006
391.662	-0.0003
392.027	-0.0018
392.392	-0.0003
392.757	-0.0028
393.122	-0.0034
393.487	-0.0043
393.852	-0.0017
394.217	-0.0007
394.582	-0.0002
394.946	-0.002
395.311	-0.0019
395.676	-0.0035
396.04	-0.0024
396.405	-0.0019
396.77	0.0014
397.134	0.0006
397.499	0.0013
397.863	-0.0004
398.227	0.003
398.592	0.0005
398.956	-0.0012
399.32	-0.0059
399.685	-0.0047
400.049	-0.0026
400.413	-0.0007
400.777	-0.0001
401.141	-0.0016
401.505	-0.001
401.869	-0.0017
402.233	0.0001
402.597	-0.0009
402.961	-0.0001
403.325	0.0001
403.689	0.0005
404.053	0.001
404.416	0.0015
404.78	0.0023
405.144	0.0025
405.507	0.0016
405.871	0.0016
406.234	-0.0003
406.598	-0.0023
406.961	-0.0039
407.325	-0.004
407.688	-0.0019
408.051	-0.0014
408.415	-0.0008
408.778	-0.0023
409.141	-0.0021
409.504	-0.0013
409.867	-0.0022
410.23	-0.0001
410.593	-0.002
410.956	-0.0023
411.319	-0.0062
411.682	-0.0068
412.045	-0.005
412.408	-0.0033
412.771	-0.0016
413.134	-0.0035
413.496	-0.0033
413.859	-0.0034
414.222	-0.0013
414.584	0.0019
414.947	0.0021
415.309	0.001
415.672	-0.0002
416.034	-0.0015
416.396	-0.0021
416.759	-0.0042
417.121	-0.0019
417.483	-0.0019
417.846	-0.0007
418.208	-0.0026
418.57	-0.0003
418.932	-0.002
419.294	-0.0012
419.656	-0.0028
420.018	-0.0017
420.38	-0.0035
420.742	-0.0029
421.104	-0.0042
421.466	-0.0038
421.827	-0.0062
422.189	-0.0059
422.551	-0.0047
422.912	-0.0023
423.274	0.0003
423.636	0.0008
423.997	0.0005
424.359	-0.002
424.72	-0.0023
425.081	-0.0002
425.443	0.0012
425.804	0.0031
426.165	0.0023
426.527	0.0016
426.888	-0.0009
427.249	-0.0015
427.61	-0.0009
427.971	-0.0008
428.332	-0.0024
428.693	-0.0042
429.054	-0.0051
429.415	-0.0036
429.776	-0.0047
430.137	-0.0043
430.498	-0.0037
430.858	-0.0014
431.219	-0.0025
431.58	-0.0022
431.94	-0.0001
432.301	0.0008
432.661	-0.0016
433.022	-0.004
433.382	-0.002
433.743	0.0004
434.103	0.0014
434.463	0.0006
434.824	-0.0008
435.184	-0.0007
435.544	0.0005
435.904	0.0028
436.264	0.0037
436.624	0.0016
436.985	-0.0022
437.345	-0.0019
437.704	-0.0009
438.064	0.0004
438.424	-0.0023
438.784	-0.005
439.144	-0.0066
439.504	-0.0051
439.863	-0.0029
440.223	-0.0002
440.583	-0.0005
440.942	-0.0003
441.302	-0.0007
441.661	-0.0014
442.021	-0.0007
442.38	-0.001
442.739	-0.0006
443.099	-0.0035
443.458	-0.0005
443.817	-0.0007
444.176	0.0023
444.536	0
444.895	0.0005
445.254	-0.0023
445.613	-0.0019
445.972	-0.0005
446.331	0.0007
446.69	-0.0009
447.049	-0.0033
447.407	-0.0037
447.766	-0.0039
448.125	-0.0009
448.484	0.0003
448.842	0.0001
449.201	-0.0019
449.559	-0.0024
449.918	-0.001
450.276	-0.0008
450.635	0.0002
450.993	-0.0008
451.352	0.0001
451.71	-0.0001
452.068	-0.0012
452.426	-0.0038
452.785	-0.004
453.143	-0.0029
453.501	-0.0001
453.859	-0.0043
454.217	-0.0035
454.575	-0.0058
454.933	-0.0022
455.291	-0.0001
455.649	-0
456.006	-0.0012
456.364	-0.0033
456.722	-0.0023
457.079	-0.0013
457.437	-0.0028
457.795	-0.0022
458.152	-0.0003
458.51	0.0009
458.867	-0.0001
459.225	-0.0025
459.582	-0.0033
459.939	-0.0025
460.297	-0.0025
460.654	-0.0004
461.011	0.0004
461.368	0.0022
461.725	-0.0009
462.082	-0.001
462.44	-0.0043
462.797	-0.0039
463.153	-0.0032
463.51	-0.0035
463.867	-0.003
464.224	-0.0035
464.581	-0.0011
464.938	0.0005
465.294	0.0005
465.651	0.0017
466.008	-0.0009
466.364	-0.0012
466.721	-0.0025
467.077	-0.0055
467.434	-0.0057
467.79	-0.0042
468.146	-0.001
468.503	-0.0027
468.859	-0.0032
469.215	-0.002
469.571	-0.0016
469.927	-0
470.284	-0.0009
470.64	-0.0011
470.996	-0.0031
471.352	-0.0038
471.707	-0.003
472.063	0.0009
472.419	0.0008
472.775	0.0042
473.131	0.0015
473.486	0.0019
473.842	0.0003
474.198	-0.0002
474.553	-0.0002
474.909	-0.0002
475.264	-0.0003
475.62	0.0025
475.975	0.0019
476.331	0.002
476.686	0.0012
477.041	0.0002
477.396	-0.0016
477.752	-0.0024
478.107	-0.0009
478.462	0.0001
478.817	-0.0013
479.172	-0.0036
479.527	-0.0054
479.882	-0.0049
480.237	-0.0035
480.591	-0.0007
480.946	0.0004
481.301	-0
481.656	-0.0018
482.01	-0.0039
482.365	-0.0045
482.72	-0.0034
483.074	-0.0015
483.429	-0.0005
483.783	0.0013
484.137	0.0002
484.492	-0.0001
484.846	-0.0032
485.2	-0.001
485.555	-0.0012
485.909	0.0006
486.263	-0.0028
486.617	-0.0013
486.971	-0.0017
487.325	-0.0016
487.679	-0.003
488.033	-0.0025
488.387	-0.0015
488.741	-0.0027
489.094	-0.0018
489.448	-0.0012
489.802	0.0007
490.156	-0.0019
490.509	-0.0006
490.863	-0.0012
491.216	-0.0015
491.57	-0.0044
491.923	-0.0031
492.277	-0.0026
492.63	-0.0024
492.983	-0.0036
493.337	-0.0042
493.69	-0.0025
494.043	-0.0031
494.396	-0.0027
494.749	-0.0042
495.102	-0.004
495.455	-0.0029
495.808	-0.0007
496.161	-0.0012
496.514	-0.0026
496.867	-0.0043
497.22	-0.0024
497.572	-0.003
497.925	-0.0011
498.278	-0.001
498.63	-0.0003
498.983	-0.0029
499.335	-0.0047
499.688	-0.0048
500.04	-0.0045
500.393	-0.0055
500.745	-0.0058
501.097	-0.0066
501.449	-0.0043
501.802	-0.0036
502.154	-0.0011
502.506	-0.0022
502.858	-0.0034
503.21	-0.0051
503.562	-0.0049
503.914	-0.004
504.266	-0.0032
504.618	-0.0024
504.969	-0.0016
505.321	-0.0011
505.673	-0.0017
506.025	-0.0027
506.376	-0.0056
506.728	-0.0049
507.079	-0.0031
507.431	-0
507.782	-0.0012
508.134	-0.0033
508.485	-0.0037
508.836	-0.0025
509.188	-0.0032
509.539	-0.0043
509.89	-0.004
510.241	-0.0026
510.592	-0.0025
510.943	-0.0022
511.294	-0.0012
511.645	-0.0023
511.996	-0.0046
512.347	-0.0052
512.698	-0.0047
513.049	-0.0026
513.399	-0.0014
513.75	-0.0007
514.101	-0.0018
514.451	-0.0026
514.802	-0.0039
515.152	-0.0055
515.503	-0.0057
515.853	-0.0026
516.203	-0
516.554	-0.001
516.904	-0.003
517.254	-0.0023
517.604	-0.0008
517.955	-0.001
518.305	-0.0067
518.655	-0.0089
519.005	-0.0092
519.355	-0.0058
519.705	-0.0068
520.055	-0.007
520.404	-0.0084
520.754	-0.0065
521.104	-0.0048
521.454	-0.0027
521.803	-0.003
522.153	-0.0026
522.502	-0.0035
522.852	-0.0036
523.201	-0.0055
523.551	-0.0046
523.9	-0.0074
524.249	-0.0075
524.599	-0.0084
524.948	-0.0032
525.297	-0.0045
525.646	-0.0058
525.995	-0.0075
526.344	-0.0043
526.694	-0.0043
527.042	-0.0036
527.391	-0.0067
527.74	-0.0058
528.089	-0.0048
528.438	-0.002
528.787	-0.0017
529.135	-0.0048
529.484	-0.0081
529.833	-0.0067
530.181	-0.0067
530.53	-0.0061
530.878	-0.01
531.227	-0.0083
531.575	-0.0074
531.923	-0.0035
532.271	-0.0049
532.62	-0.0018
532.968	-0.0033
533.316	-0.004
533.664	-0.0031
534.012	-0.0003
534.36	0.0033
534.708	-0
535.056	-0.003
535.404	-0.0065
535.752	-0.0045
536.1	-0.0041
536.447	-0.0036
536.795	-0.0061
537.143	-0.0079
537.49	-0.0085
537.838	-0.0075
538.185	-0.0058
538.533	-0.0057
538.88	-0.0077
539.228	-0.0071
539.575	-0.0062
539.922	-0.004
540.269	-0.0053
540.617	-0.0044
540.964	-0.0068
541.311	-0.0071
541.658	-0.0098
542.005	-0.009
542.352	-0.0075
542.699	-0.0065
543.045	-0.006
543.392	-0.0059
543.739	-0.0055
544.086	-0.0087
544.432	-0.0088
544.779	-0.0083
545.126	-0.0058
545.472	-0.0057
545.819	-0.0059
546.165	-0.0073
546.512	-0.0087
546.858	-0.0098
547.204	-0.0099
547.55	-0.0097
547.897	-0.0077
548.243	-0.0052
548.589	-0.0045
548.935	-0.0062
549.281	-0.0069
549.627	-0.0081
549.973	-0.0056
550.319	-0.0071
550.665	-0.0069
551.01	-0.008
551.356	-0.0046
551.702	-0.0034
552.048	-0.0028
552.393	-0.0031
552.739	-0.0054
553.084	-0.005
553.43	-0.007
553.775	-0.0059
554.12	-0.0072
554.466	-0.0098
554.811	-0.0108
555.156	-0.0127
555.502	-0.0132
555.847	-0.01
556.192	-0.0066
556.537	-0.0052
556.882	-0.0078
557.227	-0.0108
557.572	-0.0082
557.917	-0.0072
558.261	-0.0047
558.606	-0.0035
558.951	-0.0026
559.295	-0.0029
559.64	-0.0055
559.985	-0.0059
560.329	-0.0077
560.674	-0.0049
561.018	-0.0031
561.363	-0.0038
561.707	-0.0079
562.051	-0.013
562.395	-0.0112
562.74	-0.0088
563.084	-0.0072
563.428	-0.0084
563.772	-0.0102
564.116	-0.0111
564.46	-0.011
564.804	-0.0101
565.148	-0.0109
565.492	-0.0107
565.835	-0.0137
566.179	-0.0109
566.523	-0.0086
566.866	-0.0064
567.21	-0.0075
567.554	-0.0068
567.897	-0.0031
568.24	-0.0004
568.584	-0.0015
568.927	-0.0044
569.271	-0.0065
569.614	-0.0061
569.957	-0.0055
570.3	-0.0072
570.643	-0.0089
570.986	-0.0093
571.329	-0.0046
571.672	-0.0034
572.015	-0.0057
572.358	-0.0065
572.701	-0.0066
573.044	-0.0065
573.387	-0.0081
573.729	-0.0119
574.072	-0.0113
574.414	-0.0137
574.757	-0.0098
575.099	-0.0071
575.442	-0.0046
575.784	-0.0066
576.127	-0.01
576.469	-0.0113
576.811	-0.0101
577.153	-0.0113
577.496	-0.0101
577.838	-0.0104
578.18	-0.0071
578.522	-0.0078
578.864	-0.0087
579.206	-0.012
579.548	-0.0123
579.889	-0.0126
580.231	-0.0116
580.573	-0.0124
580.915	-0.012
581.256	-0.0106
581.598	-0.0084
581.939	-0.0074
582.281	-0.0102
582.622	-0.0089
582.964	-0.0071
583.305	-0.006
583.646	-0.0072
583.988	-0.0146
584.329	-0.0156
584.67	-0.0144
585.011	-0.0101
585.352	-0.007
585.693	-0.0085
586.034	-0.0079
586.375	-0.0078
586.716	-0.0067
587.057	-0.0065
587.398	-0.0125
587.738	-0.0128
588.079	-0.0113
588.42	-0.0075
588.76	-0.0067
589.101	-0.0066
589.441	-0.008
589.782	-0.0088
590.122	-0.0121
590.463	-0.0097
590.803	-0.0086
591.143	-0.0076
591.483	-0.0086
591.823	-0.0084
592.164	-0.0083
592.504	-0.0086
592.844	-0.012
593.184	-0.0123
593.523	-0.0142
593.863	-0.01
594.203	-0.013
594.543	-0.0111
594.883	-0.0097
595.222	-0.008
595.562	-0.0095
595.901	-0.0119
596.241	-0.0115
596.58	-0.0104
596.92	-0.0072
597.259	-0.0054
597.599	-0.0038
597.938	-0.0112
598.277	-0.0085
598.616	-0.0099
598.955	-0.0077
599.295	-0.0131
599.634	-0.0133
599.973	-0.0156
600.312	-0.0154
600.65	-0.0115
600.989	-0.0082
601.328	-0.0042
601.667	-0.0081
602.005	-0.0071
602.344	-0.0099
602.683	-0.0122
603.021	-0.0136
603.36	-0.0123
603.698	-0.0082
604.037	-0.009
604.375	-0.007
604.713	-0.0086
605.052	-0.0083
605.39	-0.0114
605.728	-0.0103
606.066	-0.0129
606.404	-0.0161
606.742	-0.0153
607.08	-0.0134
607.418	-0.0095
607.756	-0.0095
608.094	-0.0117
608.431	-0.0124
608.769	-0.013
609.107	-0.0095
609.444	-0.0106
609.782	-0.0107
610.12	-0.0111
610.457	-0.0097
610.794	-0.0091
611.132	-0.0081
611.469	-0.0101
611.806	-0.0097
612.144	-0.0094
612.481	-0.0099
612.818	-0.0082
613.155	-0.0098
613.492	-0.0059
613.829	-0.0082
614.166	-0.01
614.503	-0.0085
614.84	-0.0096
615.176	-0.0108
615.513	-0.0134
615.85	-0.0133
616.187	-0.0085
616.523	-0.0073
616.86	-0.009
617.196	-0.0136
617.533	-0.0164
617.869	-0.0117
618.205	-0.0102
618.542	-0.0079
618.878	-0.0082
619.214	-0.0083
619.55	-0.0089
619.886	-0.0105
620.222	-0.0097
620.558	-0.0104
620.894	-0.0084
621.23	-0.0088
621.566	-0.009
621.902	-0.0097
622.238	-0.0079
622.573	-0.0063
622.909	-0.0082
623.244	-0.0114
623.58	-0.0114
623.916	-0.0076
624.251	-0.0037
624.586	-0.0089
624.922	-0.0138
625.257	-0.0137
625.592	-0.0093
625.927	-0.0054
626.263	-0.005
626.598	-0.0096
626.933	-0.0121
627.268	-0.0136
627.603	-0.0097
627.938	-0.009
628.272	-0.0097
628.607	-0.0133
628.942	-0.0131
629.277	-0.0086
629.611	-0.0055
629.946	-0.0044
630.281	-0.005
630.615	-0.0049
630.949	-0.0026
631.284	-0.0044
631.618	-0.007
631.953	-0.0101
632.287	-0.0097
632.621	-0.0084
632.955	-0.0084
633.289	-0.0067
633.623	-0.0077
633.957	-0.0066
634.291	-0.0084
634.625	-0.0062
634.959	-0.008
635.293	-0.0079
635.627	-0.0141
635.96	-0.0147
636.294	-0.0179
636.627	-0.013
636.961	-0.0122
637.294	-0.0105
637.628	-0.0108
637.961	-0.0116
638.295	-0.0122
638.628	-0.0116
638.961	-0.0112
639.294	-0.0102
639.628	-0.0093
639.961	-0.006
640.294	-0.0046
640.627	-0.0073
640.96	-0.0147
641.293	-0.0168
641.625	-0.0167
641.958	-0.0139
642.291	-0.006
642.624	-0.0064
642.956	-0.0091
643.289	-0.0159
643.621	-0.0159
643.954	-0.0172
644.286	-0.0183
644.619	-0.0128
644.951	-0.0051
645.283	-0.0054
645.616	-0.0099
645.948	-0.0122
646.28	-0.0086
646.612	-0.0062
646.944	-0.0016
647.276	-0.0044
647.608	-0.0063
647.94	-0.0073
648.272	-0.0034
648.603	-0.0028
648.935	-0.0061
649.267	-0.0086
649.598	-0.0105
649.93	-0.014
650.261	-0.0128
650.593	-0.007
650.924	-0.0028
651.256	-0.0045
651.587	-0.0071
651.918	-0.0079
652.25	-0.0102
652.581	-0.0128
652.912	-0.012
653.243	-0.0097
653.574	-0.0077
653.905	-0.0107
654.236	-0.0097
654.567	-0.0092
654.897	-0.0082
655.228	-0.0091
655.559	-0.0086
655.89	-0.0101
656.22	-0.0104
656.551	-0.0109
656.881	-0.0096
657.212	-0.0101
657.542	-0.0118
657.872	-0.0151
658.203	-0.013
658.533	-0.025
658.863	-0.0229
659.193	-0.0153
659.523	-0.0103
659.853	-0.0006
660.183	-0.0096
660.513	-0.0112
660.843	-0.0117
661.173	-0.0077
661.503	-0.0101
661.833	-0.0089
662.162	-0.0126
662.492	-0.0126
662.822	-0.0159
663.151	-0.0138
663.481	-0.0096
663.81	-0.0112
664.139	-0.0109
664.469	-0.0143
664.798	-0.009
665.127	-0.01
665.456	-0.0065
665.785	-0.0064
666.114	-0.0114
666.443	-0.0131
666.772	-0.0136
667.101	-0.0137
667.43	-0.0135
667.759	-0.0124
668.088	-0.0076
668.416	-0.0092
668.745	-0.0121
669.074	-0.0179
669.402	-0.0224
669.731	-0.0225
670.059	-0.0194
670.388	-0.012
670.716	-0.0104
671.044	-0.0085
671.372	-0.01
671.701	-0.011
672.029	-0.01
672.357	-0.0121
672.685	-0.0092
673.013	-0.0125
673.341	-0.0108
673.669	-0.0129
673.996	-0.0111
674.324	-0.015
674.652	-0.0135
674.98	-0.0079
675.307	-0.0033
675.635	-0.0059
675.962	-0.0067
676.29	-0.0079
676.617	-0.0056
676.945	-0.0083
677.272	-0.0073
677.599	-0.0079
677.926	-0.0088
678.253	-0.0071
678.581	-0.0077
678.908	-0.0124
679.235	-0.0117
679.561	-0.0084
679.888	-0.0014
680.215	-0.0024
680.542	-0.0038
680.869	-0.0054
681.195	-0.0038
681.522	-0.0068
681.849	-0.0116
682.175	-0.0176
682.502	-0.0159
682.828	-0.0111
683.154	-0.0076
683.481	-0.0029
683.807	-0.003
684.133	-0.0009
684.459	-0.0041
684.785	-0.0063
685.111	-0.0121
685.437	-0.0171
685.763	-0.0186
686.089	-0.0206
686.415	-0.0196
686.741	-0.0166
687.067	-0.0093
687.392	-0.0061
687.718	-0.0059
688.043	-0.0088
688.369	-0.0089
688.694	-0.0082
689.02	-0.0113
689.345	-0.0075
689.67	-0.0121
689.996	-0.0082
690.321	-0.0144
690.646	-0.0118
690.971	-0.0138
691.296	-0.0123
691.621	-0.0163
691.946	-0.0117
692.271	-0.0129
692.596	-0.0086
692.921	-0.0086
693.245	-0.0043
693.57	-0.0075
693.895	-0.0106
694.219	-0.0147
694.544	-0.0095
694.868	-0.0071
695.193	-0.0064
695.517	-0.0116
695.841	-0.0169
696.166	-0.0163
696.49	-0.0158
696.814	-0.0113
697.138	-0.0108
697.462	-0.0121
697.786	-0.0112
698.11	-0.0125
698.434	-0.011
698.758	-0.0098
699.081	-0.0087
699.405	-0.0077
699.729	-0.011
700.052	-0.0148
700.376	-0.0127
700.7	-0.0137
701.023	-0.0144
701.346	-0.0165
701.67	-0.0159
701.993	-0.0114
702.316	-0.0113
702.639	-0.0109
702.963	-0.0166
703.286	-0.014
703.609	-0.0148
703.932	-0.0126
704.255	-0.0103
704.578	-0.0071
704.9	-0.0016
705.223	-0.0044
705.546	-0.0076
705.868	-0.0085
706.191	-0.0122
706.514	-0.0133
706.836	-0.0151
707.159	-0.0139
707.481	-0.0111
707.803	-0.0118
708.126	-0.0134
708.448	-0.0182
708.77	-0.0207
709.092	-0.0157
709.414	-0.0154
709.736	-0.0153
710.058	-0.02
710.38	-0.0192
710.702	-0.0158
711.024	-0.0121
711.345	-0.0077
711.667	-0.0058
711.989	-0.0051
712.31	-0.0029
712.632	-0.0075
712.953	-0.0049
713.275	-0.0095
713.596	-0.003
713.917	-0.0076
714.239	-0.0112
714.56	-0.0133
714.881	-0.0097
715.202	-0.0061
715.523	-0.0052
715.844	-0.0069
716.165	-0.0097
716.486	-0.0185
716.807	-0.0191
717.128	-0.0147
717.448	-0.011
717.769	-0.0116
718.09	-0.013
718.41	-0.0105
718.731	-0.0077
719.051	-0.0085
719.372	-0.006
719.692	-0.0115
720.012	-0.0104
720.332	-0.0124
720.653	-0.0073
720.973	-0.0087
721.293	-0.0096
721.613	-0.0112
721.933	-0.0075
722.253	-0.0087
722.573	-0.0087
722.892	-0.0141
723.212	-0.0163
723.532	-0.0185
723.851	-0.0159
724.171	-0.0143
724.491	-0.0189
724.81	-0.02
725.129	-0.0142
725.449	-0.0058
725.768	-0.0027
726.087	-0.0068
726.407	-0.0049
726.726	-0.0066
727.045	-0.0046
727.364	-0.0081
727.683	-0.0064
728.002	-0.0076
728.321	-0.0086
728.64	-0.0103
728.958	-0.009
729.277	-0.0107
729.596	-0.0114
729.914	-0.0137
730.233	-0.0116
730.551	-0.0128
730.87	-0.0136
731.188	-0.0098
731.507	-0.0072
731.825	-0.0045
732.143	-0.0124
732.461	-0.0139
732.779	-0.0134
733.097	-0.0128
733.415	-0.0126
733.733	-0.0153
734.051	-0.0121
734.369	-0.0141
734.687	-0.0148
735.005	-0.0159
735.322	-0.014
735.64	-0.0149
735.957	-0.0107
736.275	-0.0062
736.592	-0.0048
736.91	-0.0099
737.227	-0.016
737.544	-0.0154
737.862	-0.0086
738.179	-0.0067
738.496	-0.006
738.813	-0.0128
739.13	-0.0141
739.447	-0.0121
739.764	-0.0173
740.081	-0.0202
740.398	-0.0243
740.714	-0.0167
741.031	-0.0089
741.348	-0.0057
741.664	-0.0066
741.981	-0.0111
742.297	-0.0086
742.614	-0.0086
742.93	-0.009
743.246	-0.012
743.563	-0.0143
743.879	-0.0153
744.195	-0.0154
744.511	-0.0167
744.827	-0.0122
745.143	-0.0165
745.459	-0.0149
745.775	-0.0159
746.091	-0.0132
746.406	-0.01
746.722	-0.0095
747.038	-0.0119
747.353	-0.0136
747.669	-0.0156
747.984	-0.013
748.3	-0.0114
748.615	-0.015
748.93	-0.0104
749.246	-0.0133
749.561	-0.0079
749.876	-0.012
750.191	-0.0131
750.506	-0.0115
750.821	-0.0123
751.136	-0.0117
751.451	-0.0074
751.766	-0.0063
752.08	-0.0076
752.395	-0.0125
752.71	-0.0155
753.024	-0.0127
753.339	-0.0079
753.653	-0.007
753.968	-0.0085
754.282	-0.0145
754.596	-0.0112
754.911	-0.0114
755.225	-0.0057
755.539	-0.0087
755.853	-0.0079
756.167	-0.0129
756.481	-0.0138
756.795	-0.0162
757.109	-0.0149
757.423	-0.0121
757.736	-0.0068
758.05	-0.0074
758.364	-0.0078
758.677	-0.0109
758.991	-0.0107
759.304	-0.0134
759.618	-0.0141
759.931	-0.0127
760.244	-0.0104
760.558	-0.0083
760.871	-0.0127
761.184	-0.0125
761.497	-0.0129
761.81	-0.0106
762.123	-0.0181
762.436	-0.0198
762.749	-0.0172
763.062	-0.0074
763.374	-0.0093
763.687	-0.0127
764	-0.0181
764.312	-0.0129
764.625	-0.0112
764.937	-0.0101
765.25	-0.0146
765.562	-0.0109
765.874	-0.012
766.186	-0.0149
766.499	-0.0167
766.811	-0.0163
767.123	-0.0165
767.435	-0.0189
767.747	-0.0205
768.059	-0.016
768.37	-0.0173
768.682	-0.0128
768.994	-0.0162
769.306	-0.0138
769.617	-0.0185
769.929	-0.0122
770.24	-0.008
770.552	-0.0082
770.863	-0.0176
771.174	-0.0169
771.486	-0.013
771.797	-0.0097
772.108	-0.0164
772.419	-0.0132
772.73	-0.0158
773.041	-0.0108
773.352	-0.0127
773.663	-0.0053
773.974	-0.0062
774.285	-0.0095
774.595	-0.0122
774.906	-0.0121
775.217	-0.0124
775.527	-0.0104
775.838	-0.015
776.148	-0.0151
776.458	-0.0194
776.769	-0.0159
777.079	-0.0127
777.389	-0.0091
777.699	-0.0108
778.009	-0.0126
778.319	-0.0189
778.629	-0.015
778.939	-0.0163
779.249	-0.0079
779.559	-0.0123
779.869	-0.0128
780.178	-0.0182
780.488	-0.0192
780.798	-0.0168
781.107	-0.0106
781.417	-0.0114
781.726	-0.0147
782.035	-0.0207
782.345	-0.0142
782.654	-0.0102
782.963	-0.0061
783.272	-0.0055
783.581	-0.0093
783.89	-0.0145
784.199	-0.0153
784.508	-0.0201
784.817	-0.0218
785.126	-0.0278
785.434	-0.0188
785.743	-0.0135
786.052	-0.0086
786.36	-0.0164
786.669	-0.0179
786.977	-0.0196
787.285	-0.014
787.594	-0.0122
787.902	-0.0121
788.21	-0.0183
788.518	-0.0153
788.826	-0.0116
789.135	-0.0043
789.442	-0.008
789.75	-0.0077
790.058	-0.0118
790.366	-0.0142
790.674	-0.0228
790.981	-0.0194
791.289	-0.0191
791.597	-0.0165
791.904	-0.019
792.212	-0.0213
792.519	-0.0176
792.826	-0.0167
793.134	-0.0112
793.441	-0.01
793.748	-0.0001
794.055	0.0013
794.362	-0.0033
794.669	-0.0117
794.976	-0.0141
795.283	-0.0114
795.59	-0.0098
795.897	-0.0132
796.203	-0.018
796.51	-0.0223
796.817	-0.0196
797.123	-0.0125
797.43	-0.0084
797.736	-0.0112
798.042	-0.0176
798.349	-0.018
798.655	-0.0123
798.961	-0.0083
799.267	-0.0092
799.573	-0.0119
799.879	-0.0148
800.185	-0.0132
800.491	-0.0103
800.797	-0.0067
801.103	-0.0106
801.408	-0.0108
801.714	-0.0132
802.02	-0.0115
802.325	-0.0115
802.631	-0.0162
802.936	-0.0133
803.242	-0.0181
803.547	-0.0141
803.852	-0.0167
804.157	-0.0156
804.462	-0.0145
804.768	-0.014
805.073	-0.0136
805.378	-0.0121
805.682	-0.0126
805.987	-0.0101
806.292	-0.0119
806.597	-0.0112
806.902	-0.017
807.206	-0.0228
807.511	-0.0241
807.815	-0.0257
808.12	-0.022
808.424	-0.0233
808.728	-0.0142
809.033	-0.0148
809.337	-0.0197
809.641	-0.023
809.945	-0.0244
810.249	-0.0181
810.553	-0.0161
810.857	-0.0156
811.161	-0.0153
811.465	-0.0143
811.768	-0.0171
812.072	-0.0231
812.376	-0.021
812.679	-0.0213
812.983	-0.0167
813.286	-0.026
813.59	-0.0248
813.893	-0.0241
814.196	-0.0164
814.499	-0.0128
814.803	-0.0104
815.106	-0.0158
815.409	-0.0077
815.712	-0.0054
816.015	-0.0062
816.318	-0.0207
816.62	-0.0256
816.923	-0.0217
817.226	-0.0188
817.528	-0.019
817.831	-0.0213
818.133	-0.016
818.436	-0.0222
818.738	-0.016
819.041	-0.0235
819.343	-0.0161
819.645	-0.02
819.947	-0.0085
820.249	-0.0135
820.551	-0.0115
820.853	-0.0151
821.155	-0.0184
821.457	-0.017
821.759	-0.0251
822.061	-0.0152
822.362	-0.0172
822.664	-0.0121
822.966	-0.0079
823.267	-0.0132
823.569	-0.0152
823.87	-0.0274
824.171	-0.0233
824.473	-0.0236
824.774	-0.0131
825.075	-0.0225
825.376	-0.0127
825.677	-0.0122
825.978	-0.0059
826.279	-0.0108
826.58	-0.0097
826.881	-0.0112
827.181	-0.0083
827.482	-0.0141
827.783	-0.0122
828.083	-0.0229
828.384	-0.0271
828.684	-0.0266
828.985	-0.0214
829.285	-0.0228
829.585	-0.0244
829.885	-0.0303
830.185	-0.0226
830.486	-0.0174
830.786	-0.007
831.086	-0.0055
831.385	-0.013
831.685	-0.0207
831.985	-0.033
832.285	-0.0254
832.585	-0.0233
832.884	-0.0114
833.184	-0.0154
833.483	-0.0235
833.783	-0.0285
834.082	-0.0338
834.381	-0.0299
834.681	-0.0338
834.98	-0.0245
835.279	-0.0198
835.578	-0.0126
835.877	-0.008
836.176	-0.0039
836.475	-0.0039
836.774	-0.0118
837.072	-0.0185
837.371	-0.0177
837.67	-0.0086
837.968	-0.0005
838.267	-0.0065
838.565	-0.0142
838.864	-0.0182
839.162	-0.0132
839.46	-0.0257
839.759	-0.0215
840.057	-0.0211
840.355	-0.0121
840.653	-0.0159
840.951	-0.0195
841.249	-0.0163
841.547	-0.0092
841.845	-0.0028
842.142	0.01
842.44	-0.0052
842.738	-0.0192
843.035	-0.0331
843.333	-0.0209
843.63	-0.0157
843.928	-0.0068
844.225	-0.0092
844.522	-0.0069
844.82	-0.0136
845.117	-0.0132
845.414	-0.0096
845.711	-0.008
846.008	-0.0044
846.305	-0.0123
846.602	-0.0179
846.898	-0.022
847.195	-0.0151
847.492	-0.0194
847.788	-0.0261
848.085	-0.0273
848.382	-0.0144
848.678	-0.0108
848.974	-0.0149
849.271	-0.023
849.567	-0.0206
849.863	-0.017
850.159	-0.0206
850.455	-0.0306
850.751	-0.0311
851.047	-0.0251
851.343	-0.0163
851.639	-0.0107
851.935	-0.0241
852.23	-0.0338
852.526	-0.0354
852.822	-0.0192
853.117	-0.0115
853.413	-0.0093
853.708	-0.0162
854.003	-0.0019
854.299	0.0013
854.594	-0.0066
854.889	-0.027
855.184	-0.028
855.479	-0.008
855.774	0.0102
856.069	-0.0029
856.364	-0.0085
856.659	-0.019
856.954	-0.0089
857.248	-0.0172
857.543	-0.0047
857.837	-0.0063
858.132	-0.0024
858.426	-0.0167
858.721	-0.0288
859.015	-0.035
859.309	-0.0385
859.604	-0.0287
859.898	-0.0033
860.192	0.008
860.486	0.0028
860.78	-0.0253
861.074	-0.0302
861.367	-0.0054
861.661	0.0139
861.955	0.0245
862.248	0.0108
862.542	-0.004
862.836	-0.0095
863.129	-0.0232
863.422	-0.0131
863.716	-0.0074
864.009	0.015
864.302	0.0117
864.595	-0.004
864.889	-0.0277
865.182	-0.0284
865.475	-0.0206
865.767	-0.0207
866.06	-0.0212
866.353	-0.0179
866.646	0.0038
866.938	-0.0034
867.231	-0.0179
867.524	-0.0282
867.816	0.0026
868.109	0.0151
868.401	0.0206
868.693	-0.0058
868.985	-0.014
869.278	-0.0232
869.57	-0.0151
869.862	-0.0239
870.154	-0.0322
870.446	-0.0426
870.738	-0.0499
871.029	-0.0655
871.321	-0.0535
871.613	-0.0356
871.904	-0.0258
872.196	-0.0303
872.487	-0.0199
872.779	-0.0056
873.07	0.0004
873.362	0.0166
873.653	0.0258
873.944	0.0048
874.235	-0.0488
874.526	-0.074
874.817	-0.0594
875.108	-0.0299
875.399	-0
875.69	0.0123
875.981	0.0062
876.271	-0.0183
876.562	-0.0335
876.853	-0.0401
877.143	-0.0313
877.434	-0.018
877.724	-0.0425
878.014	-0.0259
878.305	-0.0298
878.595	0.0148
878.885	0.019
879.175	0.005
879.465	-0.0165
879.755	-0.0128
880.045	-0.0042
880.335	0.0032
880.624	-0.021
880.914	-0.021
