Data from 3SS04BU_072217_1a_Absorbance_18-52-27-841.txt Node
Date: Fri Jul 28 18:52:27 MDT 2017
User: Tank Lab
Spectrometer: FLMS01220
Trigger mode: 0
Integration Time (sec): 1.000000E-1
Scans to average: 10
Electric dark correction enabled: true
Nonlinearity correction enabled: false
Boxcar width: 1
XAxis mode: Wavelengths
Number of Pixels in Spectrum: 2048
>>>>>Begin Spectral Data<<<<<
179.47	0.7165
179.856	0.7165
180.241	-0
180.626	-0
181.011	-0.1224
181.396	-0.1292
181.781	-0.335
182.166	-0
182.551	0.4952
182.936	-0.0278
183.321	0.092
183.706	-0.0446
184.091	-0.1632
184.476	0.3268
184.86	-0.7692
185.245	-1.0436
185.63	-0.0183
186.015	1.1218
186.399	-0
186.784	-0
187.169	-0
187.553	-0
187.938	-0
188.322	-0.099
188.707	-0.0665
189.091	0.0052
189.475	0.0378
189.86	0.0572
190.244	0.0597
190.629	0.066
191.013	0.1066
191.397	0.1714
191.781	0.2025
192.165	0.1974
192.55	0.2119
192.934	0.2104
193.318	0.2265
193.702	0.2242
194.086	0.2177
194.47	0.2011
194.854	0.1911
195.238	0.1878
195.622	0.1953
196.006	0.1917
196.389	0.1918
196.773	0.1836
197.157	0.1832
197.541	0.1844
197.924	0.18
198.308	0.1745
198.692	0.1709
199.075	0.1676
199.459	0.1589
199.843	0.152
200.226	0.1457
200.61	0.1461
200.993	0.1401
201.376	0.1383
201.76	0.136
202.143	0.1348
202.527	0.1321
202.91	0.1287
203.293	0.1257
203.676	0.1238
204.059	0.1216
204.443	0.1186
204.826	0.1173
205.209	0.1167
205.592	0.1203
205.975	0.1193
206.358	0.1197
206.741	0.1179
207.124	0.1222
207.507	0.1183
207.89	0.1187
208.273	0.1154
208.655	0.1165
209.038	0.1127
209.421	0.1092
209.804	0.1099
210.186	0.1113
210.569	0.1111
210.951	0.1093
211.334	0.1087
211.717	0.1074
212.099	0.1058
212.482	0.1046
212.864	0.1044
213.246	0.1043
213.629	0.1011
214.011	0.0997
214.393	0.0963
214.776	0.0955
215.158	0.0942
215.54	0.0946
215.922	0.0947
216.305	0.0956
216.687	0.094
217.069	0.0897
217.451	0.0866
217.833	0.0856
218.215	0.0862
218.597	0.0849
218.979	0.0802
219.361	0.0765
219.742	0.0753
220.124	0.0767
220.506	0.0775
220.888	0.074
221.27	0.0723
221.651	0.0704
222.033	0.0707
222.415	0.0685
222.796	0.0676
223.178	0.0649
223.559	0.0632
223.941	0.0595
224.322	0.0582
224.704	0.0567
225.085	0.0577
225.466	0.0577
225.848	0.057
226.229	0.056
226.61	0.0554
226.992	0.0544
227.373	0.0529
227.754	0.0499
228.135	0.0476
228.516	0.0454
228.897	0.0449
229.278	0.0464
229.659	0.0473
230.04	0.0471
230.421	0.0449
230.802	0.0421
231.183	0.0412
231.564	0.0422
231.944	0.0417
232.325	0.0402
232.706	0.037
233.087	0.037
233.467	0.0368
233.848	0.0373
234.229	0.0372
234.609	0.0362
234.99	0.0339
235.37	0.0333
235.751	0.0331
236.131	0.0333
236.511	0.0337
236.892	0.0337
237.272	0.0343
237.652	0.0337
238.033	0.0333
238.413	0.0335
238.793	0.0322
239.173	0.0312
239.553	0.0315
239.933	0.0311
240.313	0.0318
240.694	0.028
241.074	0.0277
241.453	0.0268
241.833	0.0287
242.213	0.0284
242.593	0.0265
242.973	0.026
243.353	0.0251
243.732	0.0273
244.112	0.0283
244.492	0.0276
244.872	0.0272
245.251	0.0265
245.631	0.028
246.01	0.0268
246.39	0.0267
246.769	0.0268
247.149	0.0273
247.528	0.0284
247.908	0.0278
248.287	0.0293
248.666	0.0271
249.045	0.0278
249.425	0.0257
249.804	0.0256
250.183	0.0249
250.562	0.0253
250.941	0.0263
251.32	0.0263
251.699	0.0248
252.078	0.024
252.457	0.0235
252.836	0.024
253.215	0.025
253.594	0.0248
253.973	0.0252
254.352	0.0234
254.731	0.0221
255.109	0.0216
255.488	0.0228
255.867	0.0241
256.245	0.0231
256.624	0.0224
257.002	0.0228
257.381	0.0245
257.759	0.0238
258.138	0.0229
258.516	0.0225
258.895	0.0234
259.273	0.023
259.651	0.022
260.03	0.0206
260.408	0.0203
260.786	0.0197
261.164	0.0205
261.542	0.0209
261.921	0.0219
262.299	0.0222
262.677	0.0224
263.055	0.0221
263.433	0.021
263.811	0.0206
264.188	0.0214
264.566	0.0216
264.944	0.0213
265.322	0.0207
265.7	0.0208
266.077	0.0206
266.455	0.0192
266.833	0.0196
267.21	0.0192
267.588	0.0202
267.966	0.0211
268.343	0.0224
268.721	0.0219
269.098	0.0201
269.475	0.02
269.853	0.0203
270.23	0.0209
270.607	0.0187
270.985	0.0186
271.362	0.0175
271.739	0.0181
272.116	0.0178
272.494	0.0186
272.871	0.0185
273.248	0.0182
273.625	0.0181
274.002	0.0175
274.379	0.0171
274.756	0.0163
275.132	0.0167
275.509	0.0162
275.886	0.0159
276.263	0.0165
276.64	0.0171
277.016	0.018
277.393	0.0178
277.77	0.0169
278.146	0.0167
278.523	0.0167
278.899	0.016
279.276	0.0139
279.652	0.0127
280.029	0.0147
280.405	0.0156
280.782	0.0152
281.158	0.0144
281.534	0.0143
281.91	0.0137
282.287	0.0137
282.663	0.0143
283.039	0.0165
283.415	0.0152
283.791	0.0145
284.167	0.0134
284.543	0.0147
284.919	0.0134
285.295	0.0138
285.671	0.0129
286.047	0.0145
286.423	0.0134
286.799	0.0131
287.174	0.0114
287.55	0.0109
287.926	0.0112
288.301	0.0123
288.677	0.0131
289.053	0.0127
289.428	0.0127
289.804	0.0121
290.179	0.0135
290.555	0.0144
290.93	0.0146
291.305	0.0127
291.681	0.0127
292.056	0.0132
292.431	0.0137
292.806	0.0126
293.182	0.0109
293.557	0.0107
293.932	0.0097
294.307	0.0105
294.682	0.0113
295.057	0.0111
295.432	0.0115
295.807	0.0111
296.182	0.0122
296.557	0.0125
296.932	0.0123
297.306	0.0127
297.681	0.0122
298.056	0.0115
298.43	0.0111
298.805	0.0098
299.18	0.0105
299.554	0.0098
299.929	0.012
300.303	0.0106
300.678	0.0095
301.052	0.009
301.427	0.0097
301.801	0.0128
302.175	0.0116
302.55	0.0127
302.924	0.0091
303.298	0.0088
303.672	0.0083
304.046	0.0096
304.421	0.0102
304.795	0.0085
305.169	0.0094
305.543	0.0081
305.917	0.009
306.291	0.0079
306.664	0.0098
307.038	0.0098
307.412	0.0102
307.786	0.0082
308.16	0.0087
308.533	0.0083
308.907	0.0092
309.281	0.0103
309.654	0.01
310.028	0.01
310.401	0.0089
310.775	0.0089
311.148	0.009
311.522	0.0078
311.895	0.0076
312.268	0.0081
312.642	0.0088
313.015	0.0098
313.388	0.0083
313.761	0.0069
314.135	0.0073
314.508	0.0091
314.881	0.0094
315.254	0.0073
315.627	0.006
316	0.0081
316.373	0.0085
316.746	0.0082
317.118	0.0071
317.491	0.0081
317.864	0.0088
318.237	0.008
318.61	0.0066
318.982	0.0064
319.355	0.0048
319.727	0.0047
320.1	0.0036
320.473	0.0048
320.845	0.0068
321.218	0.0073
321.59	0.0077
321.962	0.0071
322.335	0.0069
322.707	0.0078
323.079	0.0057
323.452	0.0069
323.824	0.0069
324.196	0.0081
324.568	0.0068
324.94	0.0048
325.312	0.0071
325.684	0.0077
326.056	0.0081
326.428	0.0053
326.8	0.0037
327.172	0.004
327.544	0.0022
327.915	0.0027
328.287	0.0028
328.659	0.0068
329.031	0.0079
329.402	0.0061
329.774	0.0038
330.145	0.0023
330.517	0.0024
330.888	0.001
331.26	0.0019
331.631	0.0025
332.003	0.0044
332.374	0.0052
332.745	0.0061
333.117	0.0054
333.488	0.004
333.859	0.0045
334.23	0.0043
334.601	0.0056
334.972	0.0053
335.343	0.0043
335.714	0.0037
336.085	0.0022
336.456	0.0017
336.827	0.0013
337.198	0.0034
337.569	0.0035
337.94	0.0026
338.31	0.0026
338.681	0.0027
339.052	0.005
339.422	0.0043
339.793	0.0058
340.164	0.0037
340.534	0.0038
340.905	0.0012
341.275	-0.0004
341.645	-0.0014
342.016	0.001
342.386	0.0031
342.756	0.005
343.127	0.0042
343.497	0.0035
343.867	0.0026
344.237	0.0028
344.607	0.003
344.977	0.0012
345.347	0.0021
345.717	0.001
346.087	0.0028
346.457	0.0028
346.827	0.0047
347.197	0.0046
347.567	0.0034
347.936	0.0019
348.306	0.0023
348.676	0.003
349.046	0.0048
349.415	0.0032
349.785	0.0038
350.154	0.002
350.524	0.0041
350.893	0.0018
351.263	0.0028
351.632	0.0006
352.001	0.0013
352.371	0.0006
352.74	0.001
353.109	0.0016
353.478	0.0019
353.847	0.003
354.217	0.0035
354.586	0.0021
354.955	0.0007
355.324	0.0006
355.693	0.0032
356.062	0.0052
356.43	0.0051
356.799	0.0024
357.168	0.0001
357.537	0.0006
357.906	0.0018
358.274	0.0034
358.643	0.0012
359.011	0.0005
359.38	-0.0013
359.749	-0.0014
360.117	-0.0018
360.486	-0.0001
360.854	-0.0008
361.222	-0.0003
361.591	-0.0019
361.959	-0.0014
362.327	-0.0003
362.695	-0.0005
363.064	0.0003
363.432	-0.0003
363.8	0.0007
364.168	0.0015
364.536	0.0012
364.904	-0.0009
365.272	-0.0028
365.64	-0.0039
366.008	-0.0025
366.376	-0.0018
366.743	-0.0008
367.111	0.0006
367.479	-0.0005
367.847	-0.0011
368.214	-0.0009
368.582	0.0003
368.949	0.0022
369.317	0.0002
369.684	-0.0014
370.052	-0.0029
370.419	-0.0027
370.787	-0.0001
371.154	0.0006
371.521	-0.0003
371.889	-0.0007
372.256	-0.0016
372.623	-0.0005
372.99	-0.0011
373.357	0
373.724	0.0011
374.091	0.0022
374.458	-0.0007
374.825	-0.0028
375.192	-0.0061
375.559	-0.0039
375.926	-0.0036
376.293	-0.002
376.659	-0.0021
377.026	-0.0021
377.393	-0.0014
377.759	-0.0014
378.126	0.0003
378.492	-0.0016
378.859	-0.0026
379.225	-0.0048
379.592	-0.0021
379.958	-0.0004
380.325	-0.0002
380.691	-0.0026
381.057	-0.0036
381.423	-0.0019
381.79	-0.0014
382.156	-0.0037
382.522	-0.0039
382.888	-0.0024
383.254	0.0003
383.62	-0.0013
383.986	-0.0019
384.352	-0.0022
384.718	-0.0026
385.084	-0.002
385.449	-0.0028
385.815	-0.0012
386.181	-0.0002
386.547	0.0019
386.912	0.0012
387.278	-0.0014
387.643	-0.0017
388.009	-0.0003
388.374	-0.0009
388.74	-0.0007
389.105	-0.0025
389.471	-0.0018
389.836	-0.0022
390.201	-0.0011
390.566	0.0007
390.932	0.0005
391.297	-0.0019
391.662	-0.0029
392.027	-0.0033
392.392	-0.0027
392.757	-0.0032
393.122	-0.0029
393.487	-0.002
393.852	-0.0023
394.217	-0.0036
394.582	-0.0017
394.946	-0.0011
395.311	-0.0014
395.676	-0.004
396.04	-0.0038
396.405	-0.0028
396.77	-0.0012
397.134	-0.003
397.499	-0.0022
397.863	-0.0032
398.227	-0.0011
398.592	-0.0027
398.956	-0.0019
399.32	-0.0036
399.685	-0.0043
400.049	-0.0033
400.413	-0.0012
400.777	-0
401.141	-0.0019
401.505	-0.004
401.869	-0.0063
402.233	-0.0061
402.597	-0.0062
402.961	-0.0042
403.325	-0.0017
403.689	-0.0015
404.053	0.0001
404.416	-0.003
404.78	-0.0036
405.144	-0.0038
405.507	-0.0011
405.871	-0.0006
406.234	-0.0016
406.598	-0.0039
406.961	-0.0032
407.325	-0.0047
407.688	-0.0051
408.051	-0.0052
408.415	-0.0005
408.778	-0.0015
409.141	-0.0012
409.504	-0.0014
409.867	-0.0006
410.23	0
410.593	-0.0027
410.956	-0.0028
411.319	-0.0042
411.682	-0.0068
412.045	-0.006
412.408	-0.0081
412.771	-0.0053
413.134	-0.0048
413.496	-0.0038
413.859	-0.0028
414.222	-0.0032
414.584	0.0002
414.947	-0.0017
415.309	-0.0012
415.672	-0.0004
416.034	0.0005
416.396	-0.002
416.759	-0.0027
417.121	-0.0031
417.483	-0.0026
417.846	-0.0039
418.208	-0.0051
418.57	-0.0027
418.932	-0.004
419.294	-0.0033
419.656	-0.0047
420.018	-0.0051
420.38	-0.003
420.742	-0.0034
421.104	-0.0029
421.466	-0.0051
421.827	-0.006
422.189	-0.0047
422.551	-0.0063
422.912	-0.0046
423.274	-0.0054
423.636	-0.0032
423.997	-0.0022
424.359	-0.0024
424.72	-0.0009
425.081	0
425.443	0.0014
425.804	0.0011
426.165	0
426.527	-0.0023
426.888	-0.0039
427.249	-0.0044
427.61	-0.0014
427.971	-0.0021
428.332	-0.0042
428.693	-0.0071
429.054	-0.0082
429.415	-0.0065
429.776	-0.0075
430.137	-0.0068
430.498	-0.0057
430.858	-0.0023
431.219	-0.0016
431.58	-0.0006
431.94	-0.0007
432.301	-0.0013
432.661	-0.0053
433.022	-0.0068
433.382	-0.0048
433.743	-0.0001
434.103	0.0022
434.463	0.0015
434.824	-0.001
435.184	-0.0013
435.544	-0.0003
435.904	0.0008
436.264	-0.0005
436.624	-0.002
436.985	-0.0039
437.345	-0.0038
437.704	-0.0042
438.064	-0.0044
438.424	-0.0071
438.784	-0.0083
439.144	-0.0071
439.504	-0.0033
439.863	-0.0021
440.223	-0.0026
440.583	-0.0047
440.942	-0.0026
441.302	-0.0015
441.661	-0.0005
442.021	-0.0009
442.38	-0.0023
442.739	-0.0038
443.099	-0.0084
443.458	-0.0067
443.817	-0.0055
444.176	-0.002
444.536	-0.004
444.895	-0.0041
445.254	-0.0044
445.613	-0.0036
445.972	-0.0046
446.331	-0.0037
446.69	-0.0038
447.049	-0.0026
447.407	-0.0017
447.766	-0.0013
448.125	-0.0004
448.484	-0.0024
448.842	-0.0028
449.201	-0.0043
449.559	-0.0052
449.918	-0.0034
450.276	-0.0026
450.635	-0.0002
450.993	-0.0013
451.352	-0.0031
451.71	-0.0051
452.068	-0.0059
452.426	-0.0049
452.785	-0.0028
453.143	-0.0035
453.501	-0.0016
453.859	-0.0048
454.217	-0.0033
454.575	-0.0084
454.933	-0.0072
455.291	-0.005
455.649	-0.0009
456.006	-0.0007
456.364	-0.0029
456.722	-0.0044
457.079	-0.0035
457.437	-0.0043
457.795	-0.0018
458.152	-0.0023
458.51	-0.0022
458.867	-0.0044
459.225	-0.0046
459.582	-0.0045
459.939	-0.0043
460.297	-0.0047
460.654	-0.0048
461.011	-0.0063
461.368	-0.0038
461.725	-0.0044
462.082	-0.0024
462.44	-0.0053
462.797	-0.0062
463.153	-0.0058
463.51	-0.0059
463.867	-0.0045
464.224	-0.0017
464.581	-0.0022
464.938	-0.0012
465.294	-0.0037
465.651	-0
466.008	-0.0002
466.364	-0.0007
466.721	-0.0021
467.077	-0.0044
467.434	-0.0034
467.79	-0.0035
468.146	-0.0021
468.503	-0.0036
468.859	-0.0055
469.215	-0.0061
469.571	-0.0073
469.927	-0.0032
470.284	-0.002
470.64	0.0007
470.996	-0.0006
471.352	-0.0011
471.707	-0.0038
472.063	-0.0024
472.419	-0.0017
472.775	-0.0015
473.131	-0.004
473.486	-0.0061
473.842	-0.0059
474.198	-0.0072
474.553	-0.0053
474.909	-0.0036
475.264	-0.0035
475.62	-0.0029
475.975	-0.0036
476.331	-0.0023
476.686	-0.0011
477.041	-0.0025
477.396	-0.0032
477.752	-0.0048
478.107	-0.0026
478.462	-0.0035
478.817	-0.0038
479.172	-0.0027
479.527	-0.0023
479.882	-0.0025
480.237	-0.0031
480.591	-0.0034
480.946	-0.0015
481.301	-0.0035
481.656	-0.0021
482.01	-0.0043
482.365	-0.0028
482.72	-0.0039
483.074	-0.003
483.429	-0.0036
483.783	-0.0029
484.137	-0.004
484.492	-0.0039
484.846	-0.0037
485.2	-0.0012
485.555	-0.0009
485.909	-0.0017
486.263	-0.0031
486.617	-0.0031
486.971	-0.0039
487.325	-0.0044
487.679	-0.0052
488.033	-0.0025
488.387	-0.0008
488.741	-0.0022
489.094	-0.0058
489.448	-0.0071
489.802	-0.0056
490.156	-0.0036
490.509	-0.0023
490.863	-0.003
491.216	-0.0037
491.57	-0.0054
491.923	-0.0049
492.277	-0.0061
492.63	-0.0062
492.983	-0.0053
493.337	-0.0042
493.69	-0.0043
494.043	-0.0063
494.396	-0.0061
494.749	-0.0056
495.102	-0.0058
495.455	-0.0045
495.808	-0.0049
496.161	-0.0039
496.514	-0.0057
496.867	-0.0061
497.22	-0.0056
497.572	-0.0049
497.925	-0.004
498.278	-0.0036
498.63	-0.0034
498.983	-0.0047
499.335	-0.006
499.688	-0.006
500.04	-0.0053
500.393	-0.005
500.745	-0.0051
501.097	-0.0042
501.449	-0.0036
501.802	-0.0054
502.154	-0.007
502.506	-0.0067
502.858	-0.0048
503.21	-0.0028
503.562	-0.0067
503.914	-0.0072
504.266	-0.0086
504.618	-0.0055
504.969	-0.0037
505.321	-0.0025
505.673	-0.003
506.025	-0.0057
506.376	-0.0079
506.728	-0.0079
507.079	-0.0059
507.431	-0.0037
507.782	-0.0021
508.134	-0.0032
508.485	-0.0023
508.836	-0.0032
509.188	-0.0036
509.539	-0.0059
509.89	-0.0041
510.241	-0.0053
510.592	-0.0068
510.943	-0.0094
511.294	-0.0066
511.645	-0.0032
511.996	-0.0022
512.347	-0.0032
512.698	-0.0057
513.049	-0.0068
513.399	-0.0058
513.75	-0.0058
514.101	-0.0047
514.451	-0.0046
514.802	-0.0057
515.152	-0.0068
515.503	-0.0065
515.853	-0.0047
516.203	-0.0039
516.554	-0.0064
516.904	-0.0066
517.254	-0.007
517.604	-0.006
517.955	-0.0067
518.305	-0.0086
518.655	-0.0083
519.005	-0.0084
519.355	-0.0077
519.705	-0.0082
520.055	-0.0072
520.404	-0.0057
520.754	-0.0049
521.104	-0.0047
521.454	-0.0061
521.803	-0.0074
522.153	-0.0086
522.502	-0.0079
522.852	-0.0069
523.201	-0.0078
523.551	-0.0071
523.9	-0.009
524.249	-0.0066
524.599	-0.0066
524.948	-0.0045
525.297	-0.0074
525.646	-0.0095
525.995	-0.009
526.344	-0.0061
526.694	-0.0041
527.042	-0.0038
527.391	-0.0063
527.74	-0.0071
528.089	-0.0074
528.438	-0.0063
528.787	-0.0085
529.135	-0.0106
529.484	-0.0114
529.833	-0.0089
530.181	-0.0102
530.53	-0.0096
530.878	-0.0105
531.227	-0.0073
531.575	-0.0062
531.923	-0.005
532.271	-0.0056
532.62	-0.0047
532.968	-0.0063
533.316	-0.0065
533.664	-0.0038
534.012	-0.0017
534.36	-0.0004
534.708	-0.0049
535.056	-0.0062
535.404	-0.0067
535.752	-0.0045
536.1	-0.0067
536.447	-0.0073
536.795	-0.0069
537.143	-0.0064
537.49	-0.0058
537.838	-0.0074
538.185	-0.0038
538.533	-0.0048
538.88	-0.0069
539.228	-0.0083
539.575	-0.0093
539.922	-0.0064
540.269	-0.0067
540.617	-0.0036
540.964	-0.0066
541.311	-0.0067
541.658	-0.0097
542.005	-0.0074
542.352	-0.0081
542.699	-0.0064
543.045	-0.0083
543.392	-0.0073
543.739	-0.008
544.086	-0.0095
544.432	-0.0104
544.779	-0.0102
545.126	-0.0086
545.472	-0.0085
545.819	-0.008
546.165	-0.0067
546.512	-0.006
546.858	-0.0051
547.204	-0.0063
547.55	-0.0059
547.897	-0.0082
548.243	-0.0064
548.589	-0.0086
548.935	-0.0091
549.281	-0.0115
549.627	-0.0106
549.973	-0.0091
550.319	-0.0097
550.665	-0.0098
551.01	-0.0097
551.356	-0.0053
551.702	-0.0027
552.048	-0.0011
552.393	-0.0036
552.739	-0.0061
553.084	-0.0078
553.43	-0.0082
553.775	-0.0075
554.12	-0.008
554.466	-0.0086
554.811	-0.0092
555.156	-0.011
555.502	-0.011
555.847	-0.0088
556.192	-0.0063
556.537	-0.0074
556.882	-0.0083
557.227	-0.0101
557.572	-0.0077
557.917	-0.0077
558.261	-0.0063
558.606	-0.0057
558.951	-0.0078
559.295	-0.0074
559.64	-0.01
559.985	-0.0084
560.329	-0.0112
560.674	-0.0075
561.018	-0.0092
561.363	-0.0077
561.707	-0.0108
562.051	-0.0111
562.395	-0.0117
562.74	-0.0114
563.084	-0.0113
563.428	-0.0108
563.772	-0.0121
564.116	-0.0113
564.46	-0.0112
564.804	-0.0098
565.148	-0.0112
565.492	-0.0104
565.835	-0.0116
566.179	-0.0091
566.523	-0.0092
566.866	-0.0071
567.21	-0.0075
567.554	-0.0038
567.897	-0.0052
568.24	-0.0047
568.584	-0.0079
568.927	-0.0082
569.271	-0.0085
569.614	-0.0106
569.957	-0.0089
570.3	-0.0091
570.643	-0.009
570.986	-0.01
571.329	-0.0083
571.672	-0.0049
572.015	-0.0057
572.358	-0.0059
572.701	-0.0085
573.044	-0.0082
573.387	-0.0097
573.729	-0.0089
574.072	-0.0098
574.414	-0.0102
574.757	-0.0115
575.099	-0.0089
575.442	-0.009
575.784	-0.0087
576.127	-0.0111
576.469	-0.0121
576.811	-0.0108
577.153	-0.0113
577.496	-0.0109
577.838	-0.0119
578.18	-0.0122
578.522	-0.0122
578.864	-0.0139
579.206	-0.0133
579.548	-0.0143
579.889	-0.0128
580.231	-0.0124
580.573	-0.0117
580.915	-0.0118
581.256	-0.011
581.598	-0.0093
581.939	-0.0087
582.281	-0.0119
582.622	-0.0112
582.964	-0.0089
583.305	-0.0083
583.646	-0.01
583.988	-0.0163
584.329	-0.0145
584.67	-0.0139
585.011	-0.012
585.352	-0.01
585.693	-0.0099
586.034	-0.0081
586.375	-0.0088
586.716	-0.0107
587.057	-0.0116
587.398	-0.0157
587.738	-0.0142
588.079	-0.0127
588.42	-0.0078
588.76	-0.0082
589.101	-0.009
589.441	-0.0126
589.782	-0.0125
590.122	-0.013
590.463	-0.0122
590.803	-0.0109
591.143	-0.0093
591.483	-0.011
591.823	-0.0107
592.164	-0.012
592.504	-0.0121
592.844	-0.0151
593.184	-0.0146
593.523	-0.0119
593.863	-0.0085
594.203	-0.0107
594.543	-0.0129
594.883	-0.0128
595.222	-0.0105
595.562	-0.0113
595.901	-0.0121
596.241	-0.0113
596.58	-0.0081
596.92	-0.0063
597.259	-0.0044
597.599	-0.0042
597.938	-0.0066
598.277	-0.0067
598.616	-0.0079
598.955	-0.0078
599.295	-0.0102
599.634	-0.0106
599.973	-0.016
600.312	-0.0156
600.65	-0.0153
600.989	-0.0099
601.328	-0.0081
601.667	-0.0118
602.005	-0.0122
602.344	-0.0134
602.683	-0.0117
603.021	-0.0113
603.36	-0.0117
603.698	-0.0114
604.037	-0.012
604.375	-0.0086
604.713	-0.006
605.052	-0.0068
605.39	-0.0095
605.728	-0.0099
606.066	-0.0114
606.404	-0.016
606.742	-0.0157
607.08	-0.0148
607.418	-0.0126
607.756	-0.0119
608.094	-0.0117
608.431	-0.0101
608.769	-0.0116
609.107	-0.0101
609.444	-0.011
609.782	-0.0102
610.12	-0.01
610.457	-0.0098
610.794	-0.0099
611.132	-0.0117
611.469	-0.0129
611.806	-0.0132
612.144	-0.0117
612.481	-0.0124
612.818	-0.011
613.155	-0.0103
613.492	-0.0063
613.829	-0.0058
614.166	-0.0082
614.503	-0.0096
614.84	-0.0126
615.176	-0.0138
615.513	-0.0146
615.85	-0.0158
616.187	-0.0107
616.523	-0.0114
616.86	-0.0107
617.196	-0.0125
617.533	-0.0119
617.869	-0.0084
618.205	-0.0086
618.542	-0.0082
618.878	-0.0099
619.214	-0.0118
619.55	-0.0112
619.886	-0.0096
620.222	-0.0073
620.558	-0.009
620.894	-0.0075
621.23	-0.0075
621.566	-0.0086
621.902	-0.0101
622.238	-0.009
622.573	-0.0056
622.909	-0.0125
623.244	-0.0149
623.58	-0.0161
623.916	-0.0098
624.251	-0.0094
624.586	-0.0108
624.922	-0.0138
625.257	-0.0119
625.592	-0.0089
625.927	-0.0052
626.263	-0.0093
626.598	-0.0086
626.933	-0.0102
627.268	-0.0073
627.603	-0.0108
627.938	-0.0136
628.272	-0.015
628.607	-0.0161
628.942	-0.0138
629.277	-0.0093
629.611	-0.007
629.946	-0.0064
630.281	-0.0083
630.615	-0.0064
630.949	-0.0043
631.284	-0.0053
631.618	-0.0092
631.953	-0.0105
632.287	-0.0079
632.621	-0.0064
632.955	-0.0087
633.289	-0.0094
633.623	-0.0077
633.957	-0.0037
634.291	-0.0072
634.625	-0.008
634.959	-0.0096
635.293	-0.0084
635.627	-0.0131
635.96	-0.0161
636.294	-0.0183
636.627	-0.0151
636.961	-0.0125
637.294	-0.0116
637.628	-0.0133
637.961	-0.0158
638.295	-0.0148
638.628	-0.0152
638.961	-0.0156
639.294	-0.0124
639.628	-0.0069
639.961	-0.0025
640.294	-0.0019
640.627	-0.0059
640.96	-0.0101
641.293	-0.0134
641.625	-0.0136
641.958	-0.0122
642.291	-0.006
642.624	-0.0032
642.956	-0.0037
643.289	-0.0068
643.621	-0.0101
643.954	-0.0103
644.286	-0.0174
644.619	-0.0147
644.951	-0.0138
645.283	-0.0076
645.616	-0.0069
645.948	-0.0071
646.28	-0.0071
646.612	-0.008
646.944	-0.0046
647.276	-0.0026
647.608	0.0003
647.94	0.0008
648.272	0.0042
648.603	0.0004
648.935	0.0004
649.267	-0.007
649.598	-0.0061
649.93	-0.0092
650.261	-0.0079
650.593	-0.0048
650.924	-0.0045
651.256	-0.0005
651.587	-0.005
651.918	-0.0057
652.25	-0.0103
652.581	-0.0106
652.912	-0.0107
653.243	-0.01
653.574	-0.0111
653.905	-0.0111
654.236	-0.011
654.567	-0.0088
654.897	-0.0099
655.228	-0.0051
655.559	-0.0023
655.89	-0.001
656.22	-0.0063
656.551	-0.0074
656.881	-0.007
657.212	-0.0092
657.542	-0.0082
657.872	-0.0085
658.203	-0.0024
658.533	-0.017
658.863	-0.0202
659.193	-0.0155
659.523	-0.0116
659.853	-0.0041
660.183	-0.0084
660.513	-0.0088
660.843	-0.005
661.173	-0.0054
661.503	-0.0086
661.833	-0.008
662.162	-0.0071
662.492	-0.0028
662.822	-0.0052
663.151	-0.0062
663.481	-0.0084
663.81	-0.0128
664.139	-0.0116
664.469	-0.0119
664.798	-0.0053
665.127	-0.0046
665.456	-0.0051
665.785	-0.0059
666.114	-0.0106
666.443	-0.0099
666.772	-0.0064
667.101	-0.0063
667.43	-0.0067
667.759	-0.0096
668.088	-0.0064
668.416	-0.0104
668.745	-0.0126
669.074	-0.0169
669.402	-0.0164
669.731	-0.0154
670.059	-0.0098
670.388	-0.0035
670.716	-0.0065
671.044	-0.0056
671.372	-0.0023
671.701	-0.0007
672.029	-0.0034
672.357	-0.0089
672.685	-0.0072
673.013	-0.0091
673.341	-0.0056
673.669	-0.0067
673.996	-0.0062
674.324	-0.013
674.652	-0.0116
674.98	-0.0071
675.307	-0.0052
675.635	-0.0081
675.962	-0.0106
676.29	-0.0103
676.617	-0.0081
676.945	-0.0087
677.272	-0.0035
677.599	-0.0033
677.926	-0.0049
678.253	-0.0064
678.581	-0.0073
678.908	-0.0076
679.235	-0.0088
679.561	-0.0049
679.888	-0.0023
680.215	-0.0026
680.542	-0.0045
680.869	-0.0061
681.195	-0.0046
681.522	-0.0032
681.849	-0.0033
682.175	-0.0065
682.502	-0.0084
682.828	-0.0052
683.154	-0.0055
683.481	-0.0044
683.807	-0.0087
684.133	-0.0067
684.459	-0.0121
684.785	-0.0105
685.111	-0.0135
685.437	-0.011
685.763	-0.0111
686.089	-0.0119
686.415	-0.0141
686.741	-0.012
687.067	-0.0047
687.392	-0.0022
687.718	-0.0051
688.043	-0.0097
688.369	-0.011
688.694	-0.0075
689.02	-0.009
689.345	-0.0056
689.67	-0.0111
689.996	-0.011
690.321	-0.0159
690.646	-0.0127
690.971	-0.0133
691.296	-0.0093
691.621	-0.0099
691.946	-0.0045
692.271	-0.0051
692.596	-0.001
692.921	-0.0035
693.245	0.0012
693.57	-0.0058
693.895	-0.0058
694.219	-0.0104
694.544	-0.0055
694.868	-0.0052
695.193	-0.0086
695.517	-0.0115
695.841	-0.0113
696.166	-0.0096
696.49	-0.0108
696.814	-0.0099
697.138	-0.009
697.462	-0.0075
697.786	-0.0083
698.11	-0.0108
698.434	-0.0086
698.758	-0.0048
699.081	-0.0033
699.405	-0.006
699.729	-0.0136
700.052	-0.0168
700.376	-0.013
700.7	-0.0106
701.023	-0.0078
701.346	-0.0108
701.67	-0.0103
701.993	-0.0092
702.316	-0.0078
702.639	-0.0116
702.963	-0.0127
703.286	-0.0125
703.609	-0.0096
703.932	-0.0116
704.255	-0.008
704.578	-0.0077
704.9	-0.0038
705.223	-0.008
705.546	-0.007
705.868	-0.007
706.191	-0.0091
706.514	-0.015
706.836	-0.0164
707.159	-0.014
707.481	-0.0091
707.803	-0.0097
708.126	-0.0121
708.448	-0.0166
708.77	-0.0115
709.092	-0.0092
709.414	-0.0085
709.736	-0.0127
710.058	-0.0148
710.38	-0.0129
710.702	-0.0068
711.024	-0.0028
711.345	-0.0031
711.667	-0.0069
711.989	-0.0081
712.31	-0.0041
712.632	-0.0069
712.953	-0.0037
713.275	-0.004
713.596	-0.0005
713.917	-0.0039
714.239	-0.0087
714.56	-0.0117
714.881	-0.0084
715.202	-0.011
715.523	-0.0111
715.844	-0.0132
716.165	-0.0107
716.486	-0.0114
716.807	-0.0104
717.128	-0.0068
717.448	-0.0079
717.769	-0.0086
718.09	-0.0073
718.41	-0.0064
718.731	-0.0035
719.051	-0.0037
719.372	-0.0006
719.692	-0.0061
720.012	-0.0084
720.332	-0.006
720.653	-0.0037
720.973	-0.006
721.293	-0.0107
721.613	-0.0122
721.933	-0.0089
722.253	-0.007
722.573	-0.0022
722.892	-0.0046
723.212	-0.0096
723.532	-0.0199
723.851	-0.0142
724.171	-0.0092
724.491	-0.01
724.81	-0.0182
725.129	-0.0148
725.449	-0.0078
725.768	-0.0048
726.087	-0.0061
726.407	-0.0047
726.726	-0.0038
727.045	-0.0043
727.364	-0.0074
727.683	-0.0038
728.002	-0.0039
728.321	-0.0038
728.64	-0.0095
728.958	-0.0101
729.277	-0.0103
729.596	-0.008
729.914	-0.0101
730.233	-0.0103
730.551	-0.0134
730.87	-0.0133
731.188	-0.0089
731.507	-0.0063
731.825	-0.0066
732.143	-0.0098
732.461	-0.0122
732.779	-0.0075
733.097	-0.0093
733.415	-0.0066
733.733	-0.0122
734.051	-0.0109
734.369	-0.0106
734.687	-0.0075
735.005	-0.0057
735.322	-0.005
735.64	-0.0096
735.957	-0.0093
736.275	-0.0068
736.592	-0.0012
736.91	-0.0023
737.227	-0.0087
737.544	-0.0133
737.862	-0.0119
738.179	-0.012
738.496	-0.0061
738.813	-0.0109
739.13	-0.0099
739.447	-0.0089
739.764	-0.0079
740.081	-0.0098
740.398	-0.0135
740.714	-0.0078
741.031	-0.0029
741.348	-0.0042
741.664	-0.0099
741.981	-0.013
742.297	-0.0084
742.614	-0.0083
742.93	-0.0067
743.246	-0.0076
743.563	-0.0052
743.879	-0.0075
744.195	-0.0122
744.511	-0.0172
744.827	-0.0191
745.143	-0.0211
745.459	-0.023
745.775	-0.0164
746.091	-0.0134
746.406	-0.0051
746.722	-0.0052
747.038	-0.0045
747.353	-0.0078
747.669	-0.0125
747.984	-0.0167
748.3	-0.0158
748.615	-0.0181
748.93	-0.012
749.246	-0.0099
749.561	-0.0046
749.876	-0.0073
750.191	-0.0123
750.506	-0.0141
750.821	-0.0124
751.136	-0.0121
751.451	-0.0059
751.766	-0.0054
752.08	-0.0052
752.395	-0.0064
752.71	-0.0083
753.024	-0.0073
753.339	-0.006
753.653	-0.0034
753.968	-0.0025
754.282	-0.0022
754.596	0.0002
754.911	-0.0019
755.225	-0.0019
755.539	-0.0104
755.853	-0.0082
756.167	-0.011
756.481	-0.0063
756.795	-0.0065
757.109	-0.0062
757.423	-0.0082
757.736	-0.0081
758.05	-0.0116
758.364	-0.0088
758.677	-0.0077
758.991	-0.0032
759.304	-0.0082
759.618	-0.011
759.931	-0.0143
760.244	-0.0122
760.558	-0.0118
760.871	-0.011
761.184	-0.009
761.497	-0.0046
761.81	-0.0086
762.123	-0.0137
762.436	-0.0188
762.749	-0.0174
763.062	-0.0118
763.374	-0.0126
763.687	-0.0084
764	-0.0111
764.312	-0.0072
764.625	-0.0081
764.937	-0.0081
765.25	-0.0123
765.562	-0.0135
765.874	-0.0143
766.186	-0.0147
766.499	-0.0131
766.811	-0.0118
767.123	-0.0143
767.435	-0.0157
767.747	-0.0158
768.059	-0.0124
768.37	-0.0146
768.682	-0.0133
768.994	-0.0172
769.306	-0.0134
769.617	-0.014
769.929	-0.0033
770.24	-0.0012
770.552	-0.0047
770.863	-0.013
771.174	-0.0131
771.486	-0.0086
771.797	-0.006
772.108	-0.0087
772.419	-0.0066
772.73	-0.01
773.041	-0.0094
773.352	-0.0112
773.663	-0.0085
773.974	-0.0072
774.285	-0.0097
774.595	-0.0108
774.906	-0.0091
775.217	-0.0077
775.527	-0.002
775.838	-0.0024
776.148	-0.0044
776.458	-0.008
776.769	-0.0073
777.079	-0.0052
777.389	-0.0098
777.699	-0.0106
778.009	-0.0106
778.319	-0.0057
778.629	-0.0063
778.939	-0.0071
779.249	-0.0049
779.559	-0.0058
779.869	-0.0085
780.178	-0.0152
780.488	-0.019
780.798	-0.0163
781.107	-0.0102
781.417	-0.0093
781.726	-0.0107
782.035	-0.0128
782.345	-0.0077
782.654	-0.0123
782.963	-0.0092
783.272	-0.012
783.581	-0.008
783.89	-0.0102
784.199	-0.0101
784.508	-0.0115
784.817	-0.0146
785.126	-0.0196
785.434	-0.015
785.743	-0.0122
786.052	-0.0081
786.36	-0.0147
786.669	-0.0141
786.977	-0.0176
787.285	-0.0132
787.594	-0.0132
787.902	-0.0063
788.21	-0.0065
788.518	-0.0075
788.826	-0.0081
789.135	-0.0069
789.442	-0.0078
789.75	-0.004
790.058	-0.007
790.366	-0.0069
790.674	-0.0197
790.981	-0.0163
791.289	-0.0147
791.597	-0.0152
791.904	-0.0178
792.212	-0.0229
792.519	-0.0168
792.826	-0.014
793.134	-0.0123
793.441	-0.0075
793.748	-0.0055
794.055	0.0009
794.362	-0.0084
794.669	-0.0107
794.976	-0.0125
795.283	-0.0093
795.59	-0.0131
795.897	-0.0138
796.203	-0.0158
796.51	-0.0157
796.817	-0.016
797.123	-0.0117
797.43	-0.0069
797.736	-0.0085
798.042	-0.0111
798.349	-0.0123
798.655	-0.007
798.961	-0.008
799.267	-0.0065
799.573	-0.0124
799.879	-0.0172
800.185	-0.0196
800.491	-0.0147
800.797	-0.0085
801.103	-0.0127
801.408	-0.0141
801.714	-0.0077
802.02	-0.0004
802.325	-0.0003
802.631	-0.0126
802.936	-0.0192
803.242	-0.024
803.547	-0.0205
803.852	-0.0234
804.157	-0.0167
804.462	-0.0106
804.768	-0.0046
805.073	-0.0033
805.378	-0.008
805.682	-0.011
805.987	-0.0181
806.292	-0.015
806.597	-0.0086
806.902	-0.0087
807.206	-0.0153
807.511	-0.0205
807.815	-0.0223
808.12	-0.0193
808.424	-0.0171
808.728	-0.012
809.033	-0.0091
809.337	-0.0095
809.641	-0.0071
809.945	-0.0075
810.249	-0.0103
810.553	-0.0118
810.857	-0.0128
811.161	-0.0056
811.465	-0.004
811.768	-0.0016
812.072	-0.0069
812.376	-0.0093
812.679	-0.0143
812.983	-0.0164
813.286	-0.0217
813.59	-0.0182
813.893	-0.0138
814.196	-0.0056
814.499	-0.0053
814.803	-0.006
815.106	-0.0141
815.409	-0.0116
815.712	-0.01
816.015	-0.0034
816.318	-0.0128
816.62	-0.0149
816.923	-0.0155
817.226	-0.0093
817.528	-0.0078
817.831	-0.0066
818.133	-0.0079
818.436	-0.0112
818.738	-0.0081
819.041	-0.0129
819.343	-0.0075
819.645	-0.0129
819.947	-0.0023
820.249	-0.0086
820.551	-0.0118
820.853	-0.017
821.155	-0.0184
821.457	-0.0072
821.759	-0.0112
822.061	-0.0062
822.362	-0.0147
822.664	-0.0106
822.966	-0.0115
823.267	-0.0111
823.569	-0.0151
823.87	-0.0186
824.171	-0.0192
824.473	-0.0211
824.774	-0.0203
825.075	-0.0236
825.376	-0.0179
825.677	-0.0119
825.978	-0.0112
826.279	-0.0144
826.58	-0.0126
826.881	-0.0128
827.181	-0.0068
827.482	-0.0111
827.783	-0.0063
828.083	-0.0145
828.384	-0.0195
828.684	-0.0238
828.985	-0.0152
829.285	-0.0145
829.585	-0.0116
829.885	-0.0168
830.185	-0.0142
830.486	-0.0133
830.786	-0.0092
831.086	-0.0012
831.385	-0.0004
831.685	-0.0062
831.985	-0.0218
832.285	-0.0237
832.585	-0.0179
832.884	-0.0138
833.184	-0.0163
833.483	-0.032
833.783	-0.029
834.082	-0.0294
834.381	-0.0171
834.681	-0.0187
834.98	-0.016
835.279	-0.0115
835.578	-0.016
835.877	-0.0122
836.176	-0.0096
836.475	0.0002
836.774	-0.0048
837.072	-0.0113
837.371	-0.0093
837.67	0.0007
837.968	0.0015
838.267	-0.007
838.565	-0.0182
838.864	-0.0185
839.162	-0.0198
839.46	-0.0196
839.759	-0.0176
840.057	-0.0145
840.355	-0.0068
840.653	-0.004
840.951	-0.0072
841.249	-0.0087
841.547	-0.0041
841.845	0.0086
842.142	0.0131
842.44	-0.0061
842.738	-0.0175
843.035	-0.0301
843.333	-0.0178
843.63	-0.0048
843.928	0.0033
844.225	0.0063
844.522	0.0033
844.82	-0.0068
845.117	-0.0064
845.414	-0.0108
845.711	0.0113
846.008	0.0096
846.305	0.0017
846.602	-0.0147
846.898	-0.0187
847.195	-0.031
847.492	-0.0289
847.788	-0.0319
848.085	-0.015
848.382	-0.0163
848.678	-0.0164
848.974	-0.0149
849.271	-0.0091
849.567	-0.0018
849.863	-0.0101
850.159	-0.0094
850.455	-0.0128
850.751	-0.0068
851.047	-0.0142
851.343	-0.0157
851.639	-0.0186
851.935	-0.0171
852.23	-0.0326
852.526	-0.0314
852.822	-0.0286
853.117	-0.0125
853.413	-0.0073
853.708	-0.0257
854.003	-0.0164
854.299	-0.0029
854.594	0.0128
854.889	-0.0053
855.184	-0.0115
855.479	-0.0124
855.774	0.0178
856.069	-0.0056
856.364	-0.0028
856.659	-0.0141
856.954	0.0115
857.248	0.0099
857.543	0.01
857.837	-0.002
858.132	-0.0043
858.426	-0.0247
858.721	-0.0335
859.015	-0.042
859.309	-0.0314
859.604	-0.0178
859.898	0.0054
860.192	0.0127
860.486	0.0019
860.78	-0.0038
861.074	-0.0019
861.367	0.0065
861.661	0.0043
861.955	-0.0041
862.248	-0.0008
862.542	-0.0112
862.836	0.0097
863.129	-0.0038
863.422	0.0088
863.716	-0.0105
864.009	0.0052
864.302	-0.0079
864.595	-0.0089
864.889	-0.0096
865.182	-0.0017
865.475	0.0015
865.767	-0.016
866.06	-0.0215
866.353	-0.018
866.646	-0.0008
866.938	-0.0056
867.231	-0.0232
867.524	-0.0303
867.816	0.0002
868.109	0.029
868.401	0.0333
868.693	-0.0032
868.985	-0.0189
869.278	-0.0153
869.57	-0.008
869.862	-0.0188
870.154	-0.0312
870.446	-0.0418
870.738	-0.0447
871.029	-0.0475
871.321	-0.0279
871.613	-0.007
871.904	0.0151
872.196	0.0327
872.487	0.0336
872.779	0.002
873.07	-0.0127
873.362	-0.0163
873.653	0.0093
873.944	-0.0059
874.235	-0.0261
874.526	-0.0356
874.817	-0.0245
875.108	0.0118
875.399	0.0128
875.69	0.0198
875.981	0.01
876.271	0.0075
876.562	0.01
876.853	-0.0043
877.143	-0.0048
877.434	-0.0143
877.724	-0.0291
878.014	-0.0162
878.305	-0.0247
878.595	-0.003
878.885	-0.0129
879.175	-0.014
879.465	-0.0347
879.755	-0.0156
880.045	0.0064
880.335	0.0264
880.624	0.0123
880.914	0.0123
