Data from 40SS02BU-alt1_080917_1a_Absorbance_11-17-46-457.txt Node
Date: Fri Aug 11 11:17:46 MDT 2017
User: Tank Lab
Spectrometer: FLMS01220
Trigger mode: 0
Integration Time (sec): 1.000000E-1
Scans to average: 10
Electric dark correction enabled: true
Nonlinearity correction enabled: false
Boxcar width: 1
XAxis mode: Wavelengths
Number of Pixels in Spectrum: 2048
>>>>>Begin Spectral Data<<<<<
179.47	0.0975
179.856	0.0975
180.241	0.2131
180.626	-0.2405
181.011	-0
181.396	-0.4107
181.781	-0.1775
182.166	-0
182.551	0.4513
182.936	0.581
183.321	-0
183.706	0.0092
184.091	0.1001
184.476	-0.1547
184.86	0.0879
185.245	0.0338
185.63	-0.3334
186.015	-0
186.399	-0
186.784	-0
187.169	-0.2404
187.553	-0
187.938	0.2626
188.322	0.1992
188.707	0.0691
189.091	0.0461
189.475	0.0017
189.86	0.0366
190.244	0.0717
190.629	0.0894
191.013	0.117
191.397	0.1341
191.781	0.1887
192.165	0.2105
192.55	0.2309
192.934	0.235
193.318	0.2402
193.702	0.2352
194.086	0.2312
194.47	0.2372
194.854	0.2574
195.238	0.2714
195.622	0.274
196.006	0.2653
196.389	0.2638
196.773	0.2578
197.157	0.2595
197.541	0.2554
197.924	0.2587
198.308	0.2542
198.692	0.2586
199.075	0.2464
199.459	0.2508
199.843	0.2495
200.226	0.2568
200.61	0.2546
200.993	0.2494
201.376	0.2482
201.76	0.2503
202.143	0.2487
202.527	0.2474
202.91	0.2401
203.293	0.2376
203.676	0.2351
204.059	0.2349
204.443	0.2369
204.826	0.238
205.209	0.2399
205.592	0.2398
205.975	0.2378
206.358	0.2344
206.741	0.2313
207.124	0.2281
207.507	0.2294
207.89	0.2294
208.273	0.231
208.655	0.228
209.038	0.2275
209.421	0.2275
209.804	0.2277
210.186	0.2273
210.569	0.2267
210.951	0.2253
211.334	0.2235
211.717	0.2228
212.099	0.2224
212.482	0.2232
212.864	0.2218
213.246	0.2188
213.629	0.2141
214.011	0.2123
214.393	0.2151
214.776	0.2186
215.158	0.2172
215.54	0.2141
215.922	0.2115
216.305	0.2104
216.687	0.21
217.069	0.2074
217.451	0.2081
217.833	0.2078
218.215	0.2103
218.597	0.2092
218.979	0.2079
219.361	0.2048
219.742	0.2034
220.124	0.2007
220.506	0.2003
220.888	0.2009
221.27	0.2019
221.651	0.2005
222.033	0.2005
222.415	0.1991
222.796	0.1982
223.178	0.1974
223.559	0.1997
223.941	0.1983
224.322	0.1964
224.704	0.1928
225.085	0.1948
225.466	0.1935
225.848	0.1931
226.229	0.1883
226.61	0.1877
226.992	0.1861
227.373	0.188
227.754	0.1859
228.135	0.1854
228.516	0.1847
228.897	0.1835
229.278	0.1815
229.659	0.18
230.04	0.1802
230.421	0.1804
230.802	0.1817
231.183	0.1818
231.564	0.1826
231.944	0.1798
232.325	0.178
232.706	0.1769
233.087	0.1767
233.467	0.1771
233.848	0.1759
234.229	0.174
234.609	0.1725
234.99	0.1717
235.37	0.172
235.751	0.1711
236.131	0.1704
236.511	0.1695
236.892	0.1672
237.272	0.1666
237.652	0.1655
238.033	0.1642
238.413	0.1628
238.793	0.1616
239.173	0.1629
239.553	0.1622
239.933	0.1638
240.313	0.1655
240.694	0.1646
241.074	0.1633
241.453	0.1613
241.833	0.1612
242.213	0.161
242.593	0.16
242.973	0.1592
243.353	0.1568
243.732	0.1563
244.112	0.1558
244.492	0.155
244.872	0.1535
245.251	0.154
245.631	0.1548
246.01	0.1538
246.39	0.1522
246.769	0.1508
247.149	0.1498
247.528	0.1488
247.908	0.1468
248.287	0.1467
248.666	0.1468
249.045	0.1475
249.425	0.1492
249.804	0.1475
250.183	0.1467
250.562	0.1446
250.941	0.1461
251.32	0.1481
251.699	0.149
252.078	0.1472
252.457	0.1456
252.836	0.1426
253.215	0.1435
253.594	0.1425
253.973	0.1428
254.352	0.142
254.731	0.1411
255.109	0.1408
255.488	0.1394
255.867	0.1381
256.245	0.1373
256.624	0.1365
257.002	0.1365
257.381	0.1365
257.759	0.1371
258.138	0.1367
258.516	0.1363
258.895	0.1354
259.273	0.1354
259.651	0.134
260.03	0.1325
260.408	0.1321
260.786	0.1322
261.164	0.1315
261.542	0.1312
261.921	0.1303
262.299	0.1293
262.677	0.1281
263.055	0.1275
263.433	0.1264
263.811	0.1267
264.188	0.1259
264.566	0.1278
264.944	0.1277
265.322	0.1277
265.7	0.1277
266.077	0.1263
266.455	0.1267
266.833	0.1248
267.21	0.1243
267.588	0.1223
267.966	0.1218
268.343	0.1215
268.721	0.1205
269.098	0.1207
269.475	0.1193
269.853	0.1176
270.23	0.1163
270.607	0.1172
270.985	0.1164
271.362	0.1152
271.739	0.1135
272.116	0.1152
272.494	0.1161
272.871	0.113
273.248	0.1105
273.625	0.108
274.002	0.1092
274.379	0.1091
274.756	0.1089
275.132	0.1105
275.509	0.1116
275.886	0.1117
276.263	0.1096
276.64	0.1077
277.016	0.1069
277.393	0.1053
277.77	0.1049
278.146	0.1034
278.523	0.1033
278.899	0.1028
279.276	0.1024
279.652	0.1018
280.029	0.101
280.405	0.1016
280.782	0.1026
281.158	0.1021
281.534	0.1011
281.91	0.0993
282.287	0.0991
282.663	0.0983
283.039	0.0981
283.415	0.0961
283.791	0.0953
284.167	0.0941
284.543	0.0948
284.919	0.095
285.295	0.0953
285.671	0.093
286.047	0.0917
286.423	0.0913
286.799	0.0922
287.174	0.0921
287.55	0.0905
287.926	0.0902
288.301	0.0896
288.677	0.089
289.053	0.0894
289.428	0.0876
289.804	0.0878
290.179	0.0874
290.555	0.0889
290.93	0.0872
291.305	0.0845
291.681	0.0835
292.056	0.0834
292.431	0.0838
292.806	0.0832
293.182	0.0832
293.557	0.0827
293.932	0.082
294.307	0.0827
294.682	0.0827
295.057	0.0834
295.432	0.0827
295.807	0.081
296.182	0.0797
296.557	0.0786
296.932	0.0803
297.306	0.0816
297.681	0.0811
298.056	0.0793
298.43	0.0765
298.805	0.0762
299.18	0.0746
299.554	0.0749
299.929	0.0746
300.303	0.0746
300.678	0.075
301.052	0.0756
301.427	0.0758
301.801	0.0743
302.175	0.0726
302.55	0.074
302.924	0.0748
303.298	0.0738
303.672	0.0718
304.046	0.0701
304.421	0.0713
304.795	0.072
305.169	0.0721
305.543	0.0714
305.917	0.0704
306.291	0.0698
306.664	0.0695
307.038	0.0689
307.412	0.068
307.786	0.0686
308.16	0.0689
308.533	0.0683
308.907	0.066
309.281	0.066
309.654	0.0659
310.028	0.0656
310.401	0.0651
310.775	0.0642
311.148	0.0657
311.522	0.0648
311.895	0.0663
312.268	0.0641
312.642	0.0632
313.015	0.0627
313.388	0.0635
313.761	0.064
314.135	0.0623
314.508	0.0616
314.881	0.0612
315.254	0.0596
315.627	0.0576
316	0.0577
316.373	0.0603
316.746	0.0611
317.118	0.0601
317.491	0.0585
317.864	0.0592
318.237	0.0594
318.61	0.0585
318.982	0.0569
319.355	0.056
319.727	0.0551
320.1	0.0549
320.473	0.0538
320.845	0.0525
321.218	0.0524
321.59	0.0524
321.962	0.0541
322.335	0.0526
322.707	0.0518
323.079	0.0511
323.452	0.0515
323.824	0.0518
324.196	0.0513
324.568	0.0509
324.94	0.0501
325.312	0.0505
325.684	0.0509
326.056	0.052
326.428	0.0524
326.8	0.0512
327.172	0.0493
327.544	0.0476
327.915	0.0466
328.287	0.0483
328.659	0.0476
329.031	0.0483
329.402	0.0462
329.774	0.0477
330.145	0.045
330.517	0.0456
330.888	0.0442
331.26	0.0476
331.631	0.0465
332.003	0.0457
332.374	0.0436
332.745	0.0451
333.117	0.0443
333.488	0.0437
333.859	0.0421
334.23	0.0414
334.601	0.0424
334.972	0.0412
335.343	0.0417
335.714	0.0401
336.085	0.0393
336.456	0.0388
336.827	0.038
337.198	0.0379
337.569	0.0381
337.94	0.0378
338.31	0.0386
338.681	0.0389
339.052	0.0405
339.422	0.041
339.793	0.0396
340.164	0.0386
340.534	0.0391
340.905	0.0392
341.275	0.0393
341.645	0.0368
342.016	0.037
342.386	0.0367
342.756	0.0371
343.127	0.0351
343.497	0.0347
343.867	0.0337
344.237	0.0341
344.607	0.0333
344.977	0.0351
345.347	0.0331
345.717	0.0348
346.087	0.0334
346.457	0.0358
346.827	0.034
347.197	0.0351
347.567	0.0349
347.936	0.035
348.306	0.034
348.676	0.0341
349.046	0.0327
349.415	0.0317
349.785	0.0307
350.154	0.031
350.524	0.0323
350.893	0.0308
351.263	0.0298
351.632	0.0287
352.001	0.0296
352.371	0.0298
352.74	0.0286
353.109	0.0275
353.478	0.0277
353.847	0.0282
354.217	0.0284
354.586	0.0284
354.955	0.0271
355.324	0.0296
355.693	0.0297
356.062	0.0286
356.43	0.0286
356.799	0.0288
357.168	0.0302
357.537	0.0273
357.906	0.0264
358.274	0.0271
358.643	0.0267
359.011	0.028
359.38	0.0277
359.749	0.0272
360.117	0.0258
360.486	0.0255
360.854	0.0271
361.222	0.0258
361.591	0.0228
361.959	0.0217
362.327	0.0218
362.695	0.0254
363.064	0.0268
363.432	0.0258
363.8	0.0234
364.168	0.0232
364.536	0.0229
364.904	0.0227
365.272	0.021
365.64	0.0217
366.008	0.0211
366.376	0.0209
366.743	0.0218
367.111	0.0223
367.479	0.0214
367.847	0.0186
368.214	0.0192
368.582	0.0206
368.949	0.0232
369.317	0.0221
369.684	0.0205
370.052	0.0194
370.419	0.0194
370.787	0.0203
371.154	0.02
371.521	0.02
371.889	0.0183
372.256	0.0162
372.623	0.0156
372.99	0.0171
373.357	0.0169
373.724	0.0183
374.091	0.0177
374.458	0.0197
374.825	0.0194
375.192	0.0194
375.559	0.0193
375.926	0.0195
376.293	0.0186
376.659	0.0195
377.026	0.018
377.393	0.0195
377.759	0.0184
378.126	0.0188
378.492	0.0179
378.859	0.0176
379.225	0.0176
379.592	0.0168
379.958	0.015
380.325	0.0134
380.691	0.0143
381.057	0.0167
381.423	0.0178
381.79	0.0171
382.156	0.0143
382.522	0.0136
382.888	0.0123
383.254	0.0138
383.62	0.0148
383.986	0.0158
384.352	0.016
384.718	0.0152
385.084	0.0154
385.449	0.0172
385.815	0.0174
386.181	0.0175
386.547	0.015
386.912	0.0131
387.278	0.0114
387.643	0.0088
388.009	0.0079
388.374	0.0088
388.74	0.011
389.105	0.0114
389.471	0.0114
389.836	0.0124
390.201	0.013
390.566	0.0113
390.932	0.0106
391.297	0.0122
391.662	0.0141
392.027	0.0127
392.392	0.0112
392.757	0.0129
393.122	0.0138
393.487	0.0149
393.852	0.0132
394.217	0.0118
394.582	0.0097
394.946	0.0085
395.311	0.0097
395.676	0.0097
396.04	0.0091
396.405	0.0085
396.77	0.0098
397.134	0.0123
397.499	0.0138
397.863	0.0142
398.227	0.0123
398.592	0.0114
398.956	0.01
399.32	0.0103
399.685	0.0112
400.049	0.0119
400.413	0.012
400.777	0.0097
401.141	0.0095
401.505	0.0096
401.869	0.0112
402.233	0.0105
402.597	0.011
402.961	0.0085
403.325	0.0102
403.689	0.0092
404.053	0.0106
404.416	0.0082
404.78	0.0077
405.144	0.0071
405.507	0.008
405.871	0.0092
406.234	0.0095
406.598	0.0083
406.961	0.0086
407.325	0.01
407.688	0.0108
408.051	0.0098
408.415	0.0078
408.778	0.0087
409.141	0.0062
409.504	0.0076
409.867	0.0065
410.23	0.0079
410.593	0.0075
410.956	0.0064
411.319	0.0077
411.682	0.0069
412.045	0.0085
412.408	0.0106
412.771	0.0118
413.134	0.0107
413.496	0.0058
413.859	0.0045
414.222	0.0044
414.584	0.0052
414.947	0.0039
415.309	0.0038
415.672	0.0043
416.034	0.0051
416.396	0.004
416.759	0.0044
417.121	0.0061
417.483	0.0109
417.846	0.0105
418.208	0.0084
418.57	0.004
418.932	0.0061
419.294	0.008
419.656	0.0067
420.018	0.0067
420.38	0.0057
420.742	0.0073
421.104	0.0037
421.466	0.0034
421.827	0.0051
422.189	0.0067
422.551	0.0051
422.912	0.0024
423.274	0.0006
423.636	0.0037
423.997	0.004
424.359	0.0062
424.72	0.0054
425.081	0.0048
425.443	0.005
425.804	0.0041
426.165	0.0036
426.527	0.0037
426.888	0.0035
427.249	0.0035
427.61	0.0004
427.971	0.0013
428.332	0.0024
428.693	0.0049
429.054	0.0042
429.415	0.0061
429.776	0.0066
430.137	0.0096
430.498	0.0075
430.858	0.0048
431.219	0.0018
431.58	0.0037
431.94	0.0066
432.301	0.0077
432.661	0.0065
433.022	0.0042
433.382	0.0059
433.743	0.0065
434.103	0.0068
434.463	0.0049
434.824	0.0053
435.184	0.0061
435.544	0.0023
435.904	0.0012
436.264	0.0022
436.624	0.0048
436.985	0.0046
437.345	0.0052
437.704	0.0062
438.064	0.0057
438.424	0.0025
438.784	0.0031
439.144	0.0037
439.504	0.0036
439.863	0
440.223	-0.0003
440.583	0.0045
440.942	0.008
441.302	0.0051
441.661	0.0009
442.021	-0.001
442.38	0.0034
442.739	0.005
443.099	0.0021
443.458	0.0035
443.817	0.0036
444.176	0.0064
444.536	0.0042
444.895	0.003
445.254	0.0036
445.613	0.0035
445.972	0.0028
446.331	0.0048
446.69	0.0056
447.049	0.0063
447.407	0.0039
447.766	0.0002
448.125	0.0008
448.484	-0.0004
448.842	0.0004
449.201	0.0005
449.559	0.001
449.918	0.0021
450.276	0.0031
450.635	0.0033
450.993	0.0015
451.352	0.0011
451.71	0.0033
452.068	0.0053
452.426	0.004
452.785	0.0044
453.143	0.0035
453.501	0.0006
453.859	-0.0035
454.217	-0.0027
454.575	0.0007
454.933	0.0038
455.291	0.0054
455.649	0.0062
456.006	0.0047
456.364	0.0038
456.722	0.0028
457.079	0.0036
457.437	0.0012
457.795	-0.001
458.152	-0.0018
458.51	0
458.867	0.003
459.225	0.0034
459.582	0.0026
459.939	0.0002
460.297	0.0041
460.654	0.005
461.011	0.007
461.368	0.001
461.725	-0.0006
462.082	-0.0031
462.44	-0.0028
462.797	-0.0007
463.153	0.0024
463.51	0.004
463.867	0.0018
464.224	0.0017
464.581	0.0025
464.938	0.0037
465.294	0.0035
465.651	0.0029
466.008	0.0009
466.364	0.0008
466.721	0.0003
467.077	0.0033
467.434	0.0007
467.79	0.0004
468.146	-0.0004
468.503	0.0011
468.859	0.0005
469.215	0.0013
469.571	0.0018
469.927	0.0004
470.284	-0.0016
470.64	-0.0045
470.996	-0.0035
471.352	-0.0031
471.707	-0.0018
472.063	-0.0014
472.419	0.0019
472.775	0.0045
473.131	0.0064
473.486	0.0056
473.842	0.0029
474.198	0.0048
474.553	0.0032
474.909	0.0044
475.264	0.001
475.62	0.001
475.975	0.0025
476.331	0.0016
476.686	-0.002
477.041	-0.0038
477.396	-0.0024
477.752	0.0019
478.107	0.0022
478.462	0.0028
478.817	0.0017
479.172	0.001
479.527	0
479.882	0.0012
480.237	-0.001
480.591	-0.0017
480.946	-0.0037
481.301	-0.0007
481.656	-0.0001
482.01	0.0013
482.365	0
482.72	-0.0013
483.074	-0.0018
483.429	0.0001
483.783	0.0016
484.137	0.0006
484.492	-0.0001
484.846	-0.001
485.2	0.0012
485.555	-0.001
485.909	-0.0006
486.263	-0.0006
486.617	-0.0003
486.971	0.0004
487.325	-0.0008
487.679	-0.0015
488.033	-0.0042
488.387	-0.0025
488.741	-0.0004
489.094	0.001
489.448	-0.0018
489.802	-0.0026
490.156	-0.0004
490.509	0.0005
490.863	0.0004
491.216	-0.0003
491.57	-0
491.923	-0.0008
492.277	-0.0004
492.63	0.0001
492.983	-0.0009
493.337	-0.001
493.69	-0.0028
494.043	-0.0018
494.396	-0.0032
494.749	-0.0002
495.102	0.0019
495.455	0.0004
495.808	0
496.161	0.0005
496.514	0.0026
496.867	0.0015
497.22	-0.0016
497.572	-0.0013
497.925	-0.0034
498.278	-0.0013
498.63	-0.0024
498.983	-0.0007
499.335	-0.0024
499.688	-0.0028
500.04	-0.0025
500.393	-0.0023
500.745	-0.002
501.097	-0.0021
501.449	-0.0008
501.802	-0.0003
502.154	-0.0031
502.506	-0.002
502.858	-0.0031
503.21	-0.001
503.562	-0.0003
503.914	0.0023
504.266	0.0018
504.618	0.002
504.969	-0.0022
505.321	-0.001
505.673	-0.0019
506.025	0.002
506.376	0.0024
506.728	0.0004
507.079	-0.0033
507.431	-0.0049
507.782	-0.0053
508.134	-0.0041
508.485	-0.003
508.836	-0.0033
509.188	-0.0017
509.539	-0.0023
509.89	-0.0002
510.241	-0.0009
510.592	-0.0028
510.943	-0.0049
511.294	-0.0064
511.645	-0.0042
511.996	-0.0015
512.347	-0.0012
512.698	-0.0039
513.049	-0.0069
513.399	-0.0064
513.75	-0.0024
514.101	-0.0027
514.451	-0.0021
514.802	-0.0052
515.152	-0.0045
515.503	-0.0021
515.853	-0.002
516.203	-0.0014
516.554	-0.0001
516.904	-0.0007
517.254	0.0016
517.604	-0.0022
517.955	-0.0003
518.305	-0.0016
518.655	-0.0045
519.005	-0.0032
519.355	-0.0034
519.705	0.0002
520.055	-0.0017
520.404	-0.003
520.754	-0.0045
521.104	-0.0071
521.454	-0.0061
521.803	-0.0036
522.153	-0.0026
522.502	-0.0018
522.852	-0.0028
523.201	-0.0013
523.551	-0.0039
523.9	-0.0029
524.249	-0.0034
524.599	-0.0001
524.948	-0.0026
525.297	-0.0021
525.646	-0.0057
525.995	-0.0044
526.344	-0.0031
526.694	-0.0018
527.042	-0.0004
527.391	-0.0032
527.74	-0.0012
528.089	-0.0026
528.438	0.0001
528.787	-0.003
529.135	-0.0048
529.484	-0.0035
529.833	-0.0018
530.181	0.0019
530.53	0.0011
530.878	0.0011
531.227	0.0002
531.575	-0.004
531.923	-0.0032
532.271	-0.0043
532.62	-0.0024
532.968	-0.0036
533.316	-0.0075
533.664	-0.0095
534.012	-0.0084
534.36	-0.0054
534.708	-0.004
535.056	-0.0023
535.404	-0.001
535.752	0.0013
536.1	-0.0023
536.447	-0.0045
536.795	-0.0044
537.143	-0.0033
537.49	-0.0002
537.838	-0.0018
538.185	-0.0009
538.533	-0.0034
538.88	-0.0036
539.228	-0.0074
539.575	-0.0039
539.922	-0.0007
540.269	0
540.617	-0.0006
540.964	-0.0046
541.311	-0.0044
541.658	-0.0089
542.005	-0.0082
542.352	-0.0083
542.699	-0.0062
543.045	-0.0063
543.392	-0.0053
543.739	-0.0054
544.086	-0.0056
544.432	-0.0022
544.779	-0.0018
545.126	-0.0026
545.472	-0.0069
545.819	-0.0077
546.165	-0.0078
546.512	-0.0073
546.858	-0.0069
547.204	-0.0051
547.55	-0.0026
547.897	-0.0042
548.243	-0.0048
548.589	-0.0125
548.935	-0.0104
549.281	-0.0077
549.627	-0.0009
549.973	-0.0009
550.319	-0.0028
550.665	-0.0043
551.01	-0.0061
551.356	-0.0053
551.702	-0.0057
552.048	-0.0058
552.393	-0.0064
552.739	-0.0016
553.084	-0.0011
553.43	-0.0005
553.775	-0.0037
554.12	-0.0027
554.466	-0.0039
554.811	-0.0019
555.156	-0.0025
555.502	-0.0045
555.847	-0.005
556.192	-0.0067
556.537	-0.0062
556.882	-0.0098
557.227	-0.0075
557.572	-0.0059
557.917	-0.0041
558.261	-0.0035
558.606	-0.0042
558.951	-0.005
559.295	-0.0066
559.64	-0.0065
559.985	-0.0067
560.329	-0.0058
560.674	-0.0071
561.018	-0.0052
561.363	-0.005
561.707	-0.003
562.051	-0.0013
562.395	-0.003
562.74	-0.0041
563.084	-0.0084
563.428	-0.0073
563.772	-0.0072
564.116	-0.0055
564.46	-0.0082
564.804	-0.0096
565.148	-0.0102
565.492	-0.0096
565.835	-0.0089
566.179	-0.01
566.523	-0.0107
566.866	-0.0082
567.21	-0.0088
567.554	-0.0064
567.897	-0.0078
568.24	-0.0031
568.584	-0.0036
568.927	-0.0037
569.271	-0.008
569.614	-0.0049
569.957	-0.004
570.3	-0.0032
570.643	-0.0071
570.986	-0.0091
571.329	-0.007
571.672	-0.0055
572.015	-0.0036
572.358	-0.0056
572.701	-0.0046
573.044	-0.0062
573.387	-0.0035
573.729	-0.0057
574.072	-0.0056
574.414	-0.006
574.757	-0.0059
575.099	-0.0044
575.442	-0.0053
575.784	-0.0053
576.127	-0.0075
576.469	-0.0071
576.811	-0.0059
577.153	-0.0071
577.496	-0.0078
577.838	-0.0097
578.18	-0.0086
578.522	-0.0083
578.864	-0.0056
579.206	-0.0055
579.548	-0.0064
579.889	-0.0056
580.231	-0.0034
580.573	-0.0042
580.915	-0.0052
581.256	-0.0073
581.598	-0.0069
581.939	-0.0078
582.281	-0.0092
582.622	-0.0076
582.964	-0.0086
583.305	-0.0063
583.646	-0.0042
583.988	-0.0011
584.329	-0.0036
584.67	-0.0061
585.011	-0.0091
585.352	-0.0088
585.693	-0.008
586.034	-0.007
586.375	-0.0042
586.716	-0.0075
587.057	-0.0081
587.398	-0.0085
587.738	-0.0076
588.079	-0.0067
588.42	-0.0076
588.76	-0.0075
589.101	-0.0079
589.441	-0.0065
589.782	-0.0057
590.122	-0.0069
590.463	-0.0084
590.803	-0.0096
591.143	-0.0103
591.483	-0.0113
591.823	-0.0093
592.164	-0.0078
592.504	-0.0039
592.844	-0.0069
593.184	-0.0085
593.523	-0.0125
593.863	-0.0092
594.203	-0.0054
594.543	-0.0059
594.883	-0.0046
595.222	-0.0029
595.562	-0.0037
595.901	-0.0067
596.241	-0.0095
596.58	-0.0103
596.92	-0.0097
597.259	-0.0108
597.599	-0.0062
597.938	-0.0074
598.277	-0.0071
598.616	-0.0101
598.955	-0.0088
599.295	-0.0087
599.634	-0.0041
599.973	-0.0066
600.312	-0.0052
600.65	-0.0085
600.989	-0.0033
601.328	-0.0028
601.667	-0.0052
602.005	-0.008
602.344	-0.0116
602.683	-0.0113
603.021	-0.0122
603.36	-0.0126
603.698	-0.0117
604.037	-0.0126
604.375	-0.0091
604.713	-0.0091
605.052	-0.0051
605.39	-0.0053
605.728	-0.0023
606.066	-0.0054
606.404	-0.0051
606.742	-0.0053
607.08	-0.006
607.418	-0.0068
607.756	-0.0078
608.094	-0.0062
608.431	-0.0042
608.769	-0.0072
609.107	-0.0047
609.444	-0.0095
609.782	-0.0036
610.12	-0.0076
610.457	-0.0075
610.794	-0.0116
611.132	-0.0092
611.469	-0.0077
611.806	-0.0089
612.144	-0.0103
612.481	-0.0101
612.818	-0.009
613.155	-0.0105
613.492	-0.0086
613.829	-0.0071
614.166	-0.0078
614.503	-0.0099
614.84	-0.0095
615.176	-0.0088
615.513	-0.0076
615.85	-0.0031
616.187	-0.0014
616.523	-0.0018
616.86	-0.0069
617.196	-0.0091
617.533	-0.0085
617.869	-0.0087
618.205	-0.0081
618.542	-0.0125
618.878	-0.0132
619.214	-0.0148
619.55	-0.0113
619.886	-0.0124
620.222	-0.0076
620.558	-0.0038
620.894	-0.0015
621.23	-0.0077
621.566	-0.01
621.902	-0.0098
622.238	-0.0064
622.573	-0.0098
622.909	-0.0115
623.244	-0.0126
623.58	-0.0132
623.916	-0.0132
624.251	-0.0068
624.586	-0.002
624.922	-0.0047
625.257	-0.0126
625.592	-0.0154
625.927	-0.0158
626.263	-0.0141
626.598	-0.0141
626.933	-0.0122
627.268	-0.0075
627.603	-0.0049
627.938	-0.0017
628.272	-0.0069
628.607	-0.0107
628.942	-0.0139
629.277	-0.0097
629.611	-0.0043
629.946	-0.0032
630.281	-0.0032
630.615	-0.0075
630.949	-0.0075
631.284	-0.0073
631.618	-0.0053
631.953	-0.0075
632.287	-0.0123
632.621	-0.0141
632.955	-0.0125
633.289	-0.0122
633.623	-0.012
633.957	-0.0116
634.291	-0.01
634.625	-0.012
634.959	-0.0125
635.293	-0.0097
635.627	-0.0072
635.96	-0.0053
636.294	-0.001
636.627	-0.005
636.961	-0.0066
637.294	-0.0093
637.628	-0.005
637.961	-0.0106
638.295	-0.0102
638.628	-0.0126
638.961	-0.007
639.294	-0.0101
639.628	-0.011
639.961	-0.0107
640.294	-0.0113
640.627	-0.0086
640.96	-0.012
641.293	-0.0126
641.625	-0.0128
641.958	-0.0081
642.291	-0.0042
642.624	-0.0032
642.956	-0.008
643.289	-0.0076
643.621	-0.0073
643.954	-0.0075
644.286	-0.0118
644.619	-0.0144
644.951	-0.0144
645.283	-0.0097
645.616	-0.0098
645.948	-0.0106
646.28	-0.0113
646.612	-0.0106
646.944	-0.0091
647.276	-0.0104
647.608	-0.0106
647.94	-0.0124
648.272	-0.012
648.603	-0.0103
648.935	-0.0097
649.267	-0.0093
649.598	-0.0096
649.93	-0.0013
650.261	0.0003
650.593	-0.0004
650.924	-0.0088
651.256	-0.0138
651.587	-0.0124
651.918	-0.011
652.25	-0.0084
652.581	-0.0103
652.912	-0.0134
653.243	-0.0134
653.574	-0.0132
653.905	-0.0099
654.236	-0.0076
654.567	-0.0034
654.897	-0.0068
655.228	-0.0093
655.559	-0.0109
655.89	-0.0093
656.22	-0.0127
656.551	-0.0135
656.881	-0.0093
657.212	-0.0054
657.542	-0.0008
657.872	-0.0019
658.203	0.002
658.533	-0.0014
658.863	-0.0077
659.193	-0.0107
659.523	-0.0165
659.853	-0.0149
660.183	-0.0139
660.513	-0.0143
660.843	-0.0121
661.173	-0.0104
661.503	-0.011
661.833	-0.0113
662.162	-0.011
662.492	-0.009
662.822	-0.0122
663.151	-0.0131
663.481	-0.0167
663.81	-0.0118
664.139	-0.0113
664.469	-0.0061
664.798	-0.0051
665.127	-0.0027
665.456	-0.0044
665.785	-0.0064
666.114	-0.0048
666.443	-0.005
666.772	-0.0007
667.101	-0.0013
667.43	-0.0031
667.759	-0.0099
668.088	-0.013
668.416	-0.0132
668.745	-0.0111
669.074	-0.0121
669.402	-0.0098
669.731	-0.0087
670.059	-0.012
670.388	-0.0081
670.716	-0.012
671.044	-0.0072
671.372	-0.011
671.701	-0.0092
672.029	-0.0126
672.357	-0.0143
672.685	-0.0112
673.013	-0.0105
673.341	-0.0118
673.669	-0.0146
673.996	-0.0079
674.324	-0.0042
674.652	-0.0041
674.98	-0.0094
675.307	-0.0115
675.635	-0.0142
675.962	-0.0133
676.29	-0.0148
676.617	-0.0137
676.945	-0.0152
677.272	-0.0146
677.599	-0.0128
677.926	-0.0131
678.253	-0.0176
678.581	-0.0171
678.908	-0.0129
679.235	-0.008
679.561	-0.007
679.888	-0.0067
680.215	-0.0029
680.542	-0.0031
680.869	-0.0039
681.195	-0.0077
681.522	-0.0078
681.849	-0.0035
682.175	-0.0048
682.502	-0.009
682.828	-0.0167
683.154	-0.0146
683.481	-0.0098
683.807	-0.0098
684.133	-0.0085
684.459	-0.0092
684.785	-0.0083
685.111	-0.0131
685.437	-0.0189
685.763	-0.0218
686.089	-0.0159
686.415	-0.0123
686.741	-0.0107
687.067	-0.0108
687.392	-0.0116
687.718	-0.0081
688.043	-0.0086
688.369	-0.0078
688.694	-0.0103
689.02	-0.0081
689.345	-0.009
689.67	-0.0078
689.996	-0.0157
690.321	-0.0177
690.646	-0.0194
690.971	-0.0181
691.296	-0.0131
691.621	-0.0104
691.946	-0.0059
692.271	-0.0039
692.596	-0.0062
692.921	-0.0086
693.245	-0.0157
693.57	-0.0129
693.895	-0.0117
694.219	-0.01
694.544	-0.0142
694.868	-0.0197
695.193	-0.0171
695.517	-0.0145
695.841	-0.0128
696.166	-0.0153
696.49	-0.0127
696.814	-0.0082
697.138	-0.0072
697.462	-0.0098
697.786	-0.0117
698.11	-0.0085
698.434	-0.0058
698.758	-0.0038
699.081	-0.0041
699.405	-0.009
699.729	-0.007
700.052	-0.0091
700.376	-0.0085
700.7	-0.0073
701.023	-0.006
701.346	-0.0057
701.67	-0.0125
701.993	-0.0126
702.316	-0.0126
702.639	-0.0104
702.963	-0.0103
703.286	-0.0127
703.609	-0.0082
703.932	-0.0139
704.255	-0.0081
704.578	-0.0144
704.9	-0.0089
705.223	-0.0095
705.546	-0.007
705.868	-0.0099
706.191	-0.0103
706.514	-0.0125
706.836	-0.0064
707.159	-0.0104
707.481	-0.0082
707.803	-0.0118
708.126	-0.0148
708.448	-0.0143
708.77	-0.0156
709.092	-0.0076
709.414	-0.0061
709.736	-0.0079
710.058	-0.0072
710.38	-0.0093
710.702	-0.007
711.024	-0.0096
711.345	-0.0081
711.667	-0.0075
711.989	-0.0127
712.31	-0.0151
712.632	-0.015
712.953	-0.0123
713.275	-0.0116
713.596	-0.0159
713.917	-0.0106
714.239	-0.0113
714.56	-0.0042
714.881	-0.0067
715.202	-0.0067
715.523	-0.0098
715.844	-0.0107
716.165	-0.0084
716.486	-0.0084
716.807	-0.0072
717.128	-0.0088
717.448	-0.0057
717.769	-0.0028
718.09	-0.008
718.41	-0.0073
718.731	-0.0093
719.051	-0.0058
719.372	-0.0115
719.692	-0.0149
720.012	-0.0184
720.332	-0.0181
720.653	-0.0209
720.973	-0.018
721.293	-0.0159
721.613	-0.0112
721.933	-0.0081
722.253	-0.0064
722.573	-0.0076
722.892	-0.0082
723.212	-0.0088
723.532	-0.0108
723.851	-0.0076
724.171	-0.0132
724.491	-0.0139
724.81	-0.0181
725.129	-0.017
725.449	-0.0178
725.768	-0.0178
726.087	-0.0146
726.407	-0.0143
726.726	-0.0196
727.045	-0.0156
727.364	-0.0126
727.683	-0.0055
728.002	-0.0051
728.321	-0.007
728.64	-0.0086
728.958	-0.0143
729.277	-0.0071
729.596	-0.0087
729.914	-0.0057
730.233	-0.0128
730.551	-0.0127
730.87	-0.0134
731.188	-0.0075
731.507	-0.0046
731.825	-0.0025
732.143	-0.004
732.461	-0.0035
732.779	-0.0036
733.097	-0.0022
733.415	-0.0002
733.733	-0.0056
734.051	-0.0067
734.369	-0.0109
734.687	-0.0092
735.005	-0.0091
735.322	-0.0148
735.64	-0.0151
735.957	-0.0204
736.275	-0.0143
736.592	-0.016
736.91	-0.0167
737.227	-0.0199
737.544	-0.0203
737.862	-0.0175
738.179	-0.014
738.496	-0.011
738.813	-0.0131
739.13	-0.014
739.447	-0.0133
739.764	-0.0134
740.081	-0.0169
740.398	-0.0192
740.714	-0.0162
741.031	-0.0157
741.348	-0.0143
741.664	-0.0082
741.981	-0.0095
742.297	-0.0111
742.614	-0.0188
742.93	-0.0113
743.246	-0.0077
743.563	-0.0075
743.879	-0.01
744.195	-0.0128
744.511	-0.0085
744.827	-0.008
745.143	-0.008
745.459	-0.0124
745.775	-0.0149
746.091	-0.017
746.406	-0.0167
746.722	-0.0144
747.038	-0.012
747.353	-0.0053
747.669	-0.0076
747.984	-0.0117
748.3	-0.0141
748.615	-0.012
748.93	-0.0115
749.246	-0.0092
749.561	-0.0088
749.876	-0.0036
750.191	-0.0074
750.506	-0.0122
750.821	-0.0194
751.136	-0.0197
751.451	-0.0152
751.766	-0.015
752.08	-0.0232
752.395	-0.0276
752.71	-0.0226
753.024	-0.0192
753.339	-0.0155
753.653	-0.0164
753.968	-0.0128
754.282	-0.0132
754.596	-0.0105
754.911	-0.0224
755.225	-0.0222
755.539	-0.016
755.853	-0.0037
756.167	-0.0027
756.481	-0.011
756.795	-0.0142
757.109	-0.0165
757.423	-0.017
757.736	-0.0168
758.05	-0.016
758.364	-0.0125
758.677	-0.0069
758.991	-0.0084
759.304	-0.0107
759.618	-0.0163
759.931	-0.0104
760.244	-0.0108
760.558	-0.0082
760.871	-0.0126
761.184	-0.0143
761.497	-0.0142
761.81	-0.0142
762.123	-0.0117
762.436	-0.0135
762.749	-0.0126
763.062	-0.011
763.374	-0.0086
763.687	-0.006
764	-0.01
764.312	-0.009
764.625	-0.012
764.937	-0.0067
765.25	-0.0111
765.562	-0.0123
765.874	-0.0171
766.186	-0.0146
766.499	-0.0165
766.811	-0.0162
767.123	-0.0185
767.435	-0.0159
767.747	-0.0123
768.059	-0.0117
768.37	-0.0127
768.682	-0.0153
768.994	-0.0182
769.306	-0.0146
769.617	-0.0096
769.929	-0.0035
770.24	-0.0006
770.552	-0.0074
770.863	-0.0079
771.174	-0.0101
771.486	-0.0082
771.797	-0.0086
772.108	-0.0163
772.419	-0.0162
772.73	-0.0138
773.041	-0.0067
773.352	-0.0062
773.663	-0.0087
773.974	-0.0067
774.285	-0.0111
774.595	-0.0106
774.906	-0.0148
775.217	-0.0112
775.527	-0.0123
775.838	-0.0117
776.148	-0.0131
776.458	-0.0128
776.769	-0.0145
777.079	-0.0182
777.389	-0.0173
777.699	-0.0114
778.009	-0.008
778.319	-0.0058
778.629	-0.014
778.939	-0.0186
779.249	-0.0157
779.559	-0.0125
779.869	-0.0051
780.178	-0.0085
780.488	-0.0102
780.798	-0.0142
781.107	-0.0241
781.417	-0.0198
781.726	-0.0158
782.035	-0.0055
782.345	-0.0051
782.654	-0.0103
782.963	-0.0153
783.272	-0.0178
783.581	-0.0134
783.89	-0.0111
784.199	-0.0086
784.508	-0.0108
784.817	-0.0089
785.126	-0.013
785.434	-0.0159
785.743	-0.0134
786.052	-0.01
786.36	-0.009
786.669	-0.0177
786.977	-0.0177
787.285	-0.0111
787.594	-0.0058
787.902	-0.0101
788.21	-0.014
788.518	-0.0138
788.826	-0.0098
789.135	-0.0101
789.442	-0.0175
789.75	-0.0213
790.058	-0.0185
790.366	-0.012
790.674	-0.0114
790.981	-0.0113
791.289	-0.0128
791.597	-0.0151
791.904	-0.013
792.212	-0.0118
792.519	-0.0088
792.826	-0.0108
793.134	-0.0117
793.441	-0.0128
793.748	-0.0123
794.055	-0.0116
794.362	-0.0096
794.669	-0.0123
794.976	-0.0092
795.283	-0.012
795.59	-0.0081
795.897	-0.0113
796.203	-0.0103
796.51	-0.009
796.817	-0.013
797.123	-0.0109
797.43	-0.0136
797.736	-0.0082
798.042	-0.0121
798.349	-0.0103
798.655	-0.0114
798.961	-0.0098
799.267	-0.0126
799.573	-0.0156
799.879	-0.012
800.185	-0.0091
800.491	-0.0028
800.797	0.0006
801.103	0.0008
801.408	0.0008
801.714	-0.0129
802.02	-0.0177
802.325	-0.0218
802.631	-0.0112
802.936	-0.0065
803.242	-0.0046
803.547	-0.0064
803.852	-0.0025
804.157	0.0025
804.462	0.0021
804.768	-0.0031
805.073	-0.0176
805.378	-0.0171
805.682	-0.017
805.987	-0.0148
806.292	-0.0139
806.597	-0.0173
806.902	-0.0088
807.206	-0.0189
807.511	-0.0199
807.815	-0.0236
808.12	-0.0105
808.424	-0.0038
808.728	-0.0077
809.033	-0.0081
809.337	-0.0116
809.641	-0.0036
809.945	-0.0142
810.249	-0.0135
810.553	-0.0167
810.857	-0.0072
811.161	-0.004
811.465	-0.005
811.768	-0.0038
812.072	-0.0073
812.376	-0.007
812.679	-0.0033
812.983	-0.0011
813.286	-0.0015
813.59	-0.0133
813.893	-0.0163
814.196	-0.0159
814.499	-0.0165
814.803	-0.0223
815.106	-0.0251
815.409	-0.023
815.712	-0.014
816.015	-0.0114
816.318	-0.0045
816.62	-0.0091
816.923	-0.0072
817.226	-0.0135
817.528	-0.0172
817.831	-0.0167
818.133	-0.0162
818.436	-0.0055
818.738	-0.0106
819.041	-0.01
819.343	-0.0118
819.645	-0.0076
819.947	-0.0103
820.249	-0.0169
820.551	-0.016
820.853	-0.0076
821.155	-0.0066
821.457	-0.016
821.759	-0.0217
822.061	-0.022
822.362	-0.014
822.664	-0.0077
822.966	-0.005
823.267	-0.0024
823.569	-0.0066
823.87	-0.0066
824.171	-0.013
824.473	-0.0117
824.774	-0.0087
825.075	-0.013
825.376	-0.0183
825.677	-0.0259
825.978	-0.0296
826.279	-0.0297
826.58	-0.0204
826.881	-0.0148
827.181	-0.0106
827.482	-0.0199
827.783	-0.0099
828.083	-0.0109
828.384	-0.001
828.684	-0.0148
828.985	-0.0127
829.285	-0.02
829.585	-0.0083
829.885	-0.0131
830.185	-0.0044
830.486	-0.0104
830.786	-0.0106
831.086	-0.0153
831.385	-0.0127
831.685	-0.008
831.985	-0.0171
832.285	-0.0146
832.585	-0.0157
832.884	-0.0136
833.184	-0.0201
833.483	-0.0243
833.783	-0.0228
834.082	-0.0178
834.381	-0.0213
834.681	-0.0251
834.98	-0.0281
835.279	-0.0226
835.578	-0.0203
835.877	-0.0209
836.176	-0.0244
836.475	-0.028
836.774	-0.0291
837.072	-0.0208
837.371	-0.0135
837.67	-0.0126
837.968	-0.0072
838.267	0.0017
838.565	0.0156
838.864	0.0089
839.162	-0.0067
839.46	-0.0158
839.759	-0.0124
840.057	-0.0112
840.355	-0.0149
840.653	-0.0214
840.951	-0.0143
841.249	-0.0092
841.547	-0.0106
841.845	-0.0087
842.142	-0.0215
842.44	-0.0191
842.738	-0.0298
843.035	-0.0185
843.333	-0.0086
843.63	-0.0115
843.928	-0.0181
844.225	-0.0279
844.522	-0.0193
844.82	-0.0143
845.117	-0.018
845.414	-0.0153
845.711	-0.02
846.008	-0.0104
846.305	-0.0096
846.602	-0.008
846.898	-0.0079
847.195	-0.0169
847.492	-0.0255
847.788	-0.0285
848.085	-0.0257
848.382	-0.011
848.678	-0.0272
848.974	-0.0164
849.271	-0.0139
849.567	-0.0086
849.863	-0.0093
850.159	-0.0161
850.455	-0.0099
850.751	-0.0115
851.047	-0.0189
851.343	-0.0108
851.639	-0.0011
851.935	-0.0052
852.23	-0.0105
852.526	-0.0295
852.822	-0.008
853.117	0.0016
853.413	0.003
853.708	0.0016
854.003	-0.0103
854.299	-0.0077
854.594	-0.0186
854.889	-0.014
855.184	-0.0063
855.479	-0.0186
855.774	-0.0227
856.069	-0.0432
856.364	-0.0426
856.659	-0.0307
856.954	-0.0127
857.248	0.0049
857.543	-0.0211
857.837	-0.0421
858.132	-0.0344
858.426	-0.0273
858.721	-0.0218
859.015	-0.0366
859.309	-0.0286
859.604	-0.0237
859.898	-0.0053
860.192	0.0007
860.486	0.0153
860.78	0.0172
861.074	0.0231
861.367	0.0118
861.661	0.0063
861.955	-0.0109
862.248	-0.0227
862.542	-0.0285
862.836	-0.0069
863.129	0.0066
863.422	-0.0097
863.716	-0.0245
864.009	-0.0112
864.302	-0.0054
864.595	-0.0008
864.889	-0.0048
865.182	-0.0125
865.475	-0.0111
865.767	-0.0246
866.06	-0.0212
866.353	-0.0346
866.646	-0.0237
866.938	-0.0254
867.231	-0.0183
867.524	-0.0165
867.816	-0.0181
868.109	-0.0136
868.401	-0.0325
868.693	-0.0056
868.985	-0.0119
869.278	0.009
869.57	-0.0063
869.862	-0.022
870.154	-0.0252
870.446	-0.039
870.738	-0.0451
871.029	-0.0462
871.321	-0.0288
871.613	0.0005
871.904	0.0002
872.196	-0.0174
872.487	-0.0235
872.779	-0.0046
873.07	0.0464
873.362	0.0389
873.653	0.0268
873.944	-0.0035
874.235	-0.0169
874.526	-0.016
874.817	-0.0286
875.108	-0.0311
875.399	-0.0351
875.69	-0.0483
875.981	-0.039
876.271	-0.0419
876.562	-0.0288
876.853	-0.0226
877.143	-0.0535
877.434	-0.0666
877.724	-0.0993
878.014	-0.08
878.305	-0.0652
878.595	-0.0571
878.885	-0.0791
879.175	-0.0983
879.465	-0.0818
879.755	-0.0651
880.045	-0.0151
880.335	0.0082
880.624	0.0393
880.914	0.0393
