Data from 40SS02BU-alt1-2_080917_1b_Absorbance_10-56-15-683.txt Node
Date: Fri Aug 11 10:56:15 MDT 2017
User: Tank Lab
Spectrometer: FLMS01220
Trigger mode: 0
Integration Time (sec): 1.000000E-1
Scans to average: 10
Electric dark correction enabled: true
Nonlinearity correction enabled: false
Boxcar width: 1
XAxis mode: Wavelengths
Number of Pixels in Spectrum: 2048
>>>>>Begin Spectral Data<<<<<
179.47	-0.1709
179.856	-0.1709
180.241	-0.1193
180.626	0.0418
181.011	-0.4755
181.396	-0
181.781	0.2169
182.166	-0.4791
182.551	-0
182.936	-0
183.321	-0
183.706	-0
184.091	0.5809
184.476	-0.2554
184.86	0.0814
185.245	-0.0844
185.63	-0
186.015	0.1007
186.399	-0.1888
186.784	-0.6885
187.169	0.142
187.553	-0
187.938	0.1112
188.322	0.0693
188.707	0.0205
189.091	0.0437
189.475	0.0542
189.86	0.1123
190.244	0.1336
190.629	0.1375
191.013	0.1353
191.397	0.1604
191.781	0.1979
192.165	0.2063
192.55	0.2048
192.934	0.2086
193.318	0.2159
193.702	0.2317
194.086	0.2429
194.47	0.2457
194.854	0.2496
195.238	0.2537
195.622	0.2553
196.006	0.2464
196.389	0.2446
196.773	0.2479
197.157	0.2525
197.541	0.2527
197.924	0.2565
198.308	0.2548
198.692	0.2553
199.075	0.2475
199.459	0.2519
199.843	0.2478
200.226	0.2522
200.61	0.2531
200.993	0.2521
201.376	0.2488
201.76	0.243
202.143	0.2438
202.527	0.2436
202.91	0.2453
203.293	0.2456
203.676	0.2486
204.059	0.2461
204.443	0.243
204.826	0.2376
205.209	0.2397
205.592	0.2421
205.975	0.2419
206.358	0.2396
206.741	0.2336
207.124	0.2329
207.507	0.2346
207.89	0.2402
208.273	0.2408
208.655	0.2358
209.038	0.2283
209.421	0.2248
209.804	0.2227
210.186	0.2242
210.569	0.2267
210.951	0.2265
211.334	0.2251
211.717	0.2214
212.099	0.2195
212.482	0.219
212.864	0.2197
213.246	0.2188
213.629	0.2187
214.011	0.2163
214.393	0.2199
214.776	0.2208
215.158	0.2209
215.54	0.2161
215.922	0.2125
216.305	0.2111
216.687	0.2135
217.069	0.2126
217.451	0.2117
217.833	0.2095
218.215	0.2101
218.597	0.2078
218.979	0.2061
219.361	0.2043
219.742	0.2039
220.124	0.202
220.506	0.2004
220.888	0.2021
221.27	0.2008
221.651	0.2002
222.033	0.1999
222.415	0.1982
222.796	0.1995
223.178	0.199
223.559	0.2032
223.941	0.2008
224.322	0.1983
224.704	0.1958
225.085	0.1959
225.466	0.197
225.848	0.1952
226.229	0.1909
226.61	0.1881
226.992	0.1867
227.373	0.1889
227.754	0.1876
228.135	0.1871
228.516	0.1869
228.897	0.1876
229.278	0.1879
229.659	0.1857
230.04	0.1856
230.421	0.184
230.802	0.1849
231.183	0.182
231.564	0.1837
231.944	0.1803
232.325	0.179
232.706	0.1761
233.087	0.1756
233.467	0.1751
233.848	0.1754
234.229	0.1756
234.609	0.1758
234.99	0.1736
235.37	0.1735
235.751	0.1726
236.131	0.1715
236.511	0.1712
236.892	0.1691
237.272	0.1702
237.652	0.1693
238.033	0.1683
238.413	0.1661
238.793	0.1649
239.173	0.165
239.553	0.1645
239.933	0.163
240.313	0.163
240.694	0.1629
241.074	0.1626
241.453	0.1625
241.833	0.1615
242.213	0.1618
242.593	0.1608
242.973	0.1602
243.353	0.1577
243.732	0.1576
244.112	0.1555
244.492	0.1541
244.872	0.1532
245.251	0.1543
245.631	0.1543
246.01	0.1521
246.39	0.152
246.769	0.153
247.149	0.1524
247.528	0.1515
247.908	0.1495
248.287	0.1488
248.666	0.1471
249.045	0.1464
249.425	0.1468
249.804	0.1474
250.183	0.1455
250.562	0.1452
250.941	0.1441
251.32	0.1461
251.699	0.1459
252.078	0.1453
252.457	0.1442
252.836	0.1435
253.215	0.1427
253.594	0.1434
253.973	0.1431
254.352	0.1427
254.731	0.1399
255.109	0.1388
255.488	0.1378
255.867	0.138
256.245	0.1374
256.624	0.1379
257.002	0.1384
257.381	0.1379
257.759	0.1372
258.138	0.1362
258.516	0.1362
258.895	0.1355
259.273	0.1359
259.651	0.134
260.03	0.1335
260.408	0.1326
260.786	0.1331
261.164	0.1328
261.542	0.1327
261.921	0.1314
262.299	0.1308
262.677	0.1308
263.055	0.1303
263.433	0.129
263.811	0.1275
264.188	0.128
264.566	0.1281
264.944	0.1283
265.322	0.127
265.7	0.1274
266.077	0.1265
266.455	0.1275
266.833	0.1253
267.21	0.1234
267.588	0.121
267.966	0.1208
268.343	0.121
268.721	0.1212
269.098	0.1216
269.475	0.1207
269.853	0.1188
270.23	0.1178
270.607	0.1192
270.985	0.1187
271.362	0.1171
271.739	0.1139
272.116	0.1153
272.494	0.1162
272.871	0.1156
273.248	0.1139
273.625	0.1116
274.002	0.1106
274.379	0.1105
274.756	0.1111
275.132	0.1114
275.509	0.1116
275.886	0.1103
276.263	0.1094
276.64	0.108
277.016	0.1066
277.393	0.1061
277.77	0.1048
278.146	0.1057
278.523	0.1038
278.899	0.1025
279.276	0.1021
279.652	0.1026
280.029	0.1021
280.405	0.1
280.782	0.1008
281.158	0.1004
281.534	0.1017
281.91	0.1003
282.287	0.0994
282.663	0.0972
283.039	0.0966
283.415	0.0963
283.791	0.0977
284.167	0.0959
284.543	0.0969
284.919	0.0947
285.295	0.0952
285.671	0.0936
286.047	0.0933
286.423	0.0933
286.799	0.0925
287.174	0.0926
287.55	0.0926
287.926	0.0919
288.301	0.0903
288.677	0.0896
289.053	0.0891
289.428	0.0876
289.804	0.0855
290.179	0.0844
290.555	0.0862
290.93	0.0862
291.305	0.0858
291.681	0.0846
292.056	0.0848
292.431	0.0857
292.806	0.0854
293.182	0.0855
293.557	0.0857
293.932	0.0847
294.307	0.0837
294.682	0.0823
295.057	0.0823
295.432	0.0827
295.807	0.0822
296.182	0.0813
296.557	0.0811
296.932	0.0806
297.306	0.082
297.681	0.0807
298.056	0.0805
298.43	0.0781
298.805	0.0769
299.18	0.0747
299.554	0.0743
299.929	0.0749
300.303	0.0759
300.678	0.0761
301.052	0.0762
301.427	0.0757
301.801	0.076
302.175	0.075
302.55	0.0742
302.924	0.0736
303.298	0.0728
303.672	0.0716
304.046	0.0702
304.421	0.0709
304.795	0.074
305.169	0.0738
305.543	0.0725
305.917	0.0701
306.291	0.0694
306.664	0.068
307.038	0.0656
307.412	0.0648
307.786	0.0652
308.16	0.0661
308.533	0.0651
308.907	0.0656
309.281	0.0655
309.654	0.0666
310.028	0.0644
310.401	0.0641
310.775	0.064
311.148	0.0663
311.522	0.066
311.895	0.0673
312.268	0.0655
312.642	0.0659
313.015	0.0642
313.388	0.0636
313.761	0.0629
314.135	0.0608
314.508	0.0608
314.881	0.0595
315.254	0.0605
315.627	0.0591
316	0.0593
316.373	0.0573
316.746	0.0584
317.118	0.0578
317.491	0.0589
317.864	0.0589
318.237	0.0602
318.61	0.0591
318.982	0.0572
319.355	0.055
319.727	0.0545
320.1	0.0551
320.473	0.0551
320.845	0.0543
321.218	0.0538
321.59	0.0523
321.962	0.0526
322.335	0.0492
322.707	0.0504
323.079	0.0506
323.452	0.0529
323.824	0.052
324.196	0.0514
324.568	0.0515
324.94	0.0516
325.312	0.0508
325.684	0.0507
326.056	0.0489
326.428	0.0489
326.8	0.0491
327.172	0.0508
327.544	0.0501
327.915	0.0469
328.287	0.048
328.659	0.0484
329.031	0.0494
329.402	0.048
329.774	0.0477
330.145	0.0469
330.517	0.0471
330.888	0.0473
331.26	0.0488
331.631	0.0471
332.003	0.0456
332.374	0.0445
332.745	0.0456
333.117	0.0443
333.488	0.0429
333.859	0.0425
334.23	0.043
334.601	0.0442
334.972	0.0433
335.343	0.0425
335.714	0.0415
336.085	0.0388
336.456	0.0382
336.827	0.0381
337.198	0.0391
337.569	0.0398
337.94	0.0409
338.31	0.0416
338.681	0.042
339.052	0.0409
339.422	0.0399
339.793	0.0384
340.164	0.0381
340.534	0.0397
340.905	0.0402
341.275	0.0396
341.645	0.0387
342.016	0.0393
342.386	0.0378
342.756	0.0357
343.127	0.0337
343.497	0.0352
343.867	0.0349
344.237	0.0354
344.607	0.0353
344.977	0.0377
345.347	0.0366
345.717	0.0368
346.087	0.035
346.457	0.0341
346.827	0.0315
347.197	0.0321
347.567	0.0333
347.936	0.0343
348.306	0.0335
348.676	0.0342
349.046	0.0337
349.415	0.0339
349.785	0.0334
350.154	0.0335
350.524	0.0316
350.893	0.0295
351.263	0.0281
351.632	0.0291
352.001	0.0281
352.371	0.0293
352.74	0.0288
353.109	0.0302
353.478	0.0295
353.847	0.0292
354.217	0.0284
354.586	0.0277
354.955	0.0282
355.324	0.0298
355.693	0.0311
356.062	0.0294
356.43	0.0302
356.799	0.0296
357.168	0.0299
357.537	0.0275
357.906	0.0264
358.274	0.0281
358.643	0.0273
359.011	0.0273
359.38	0.026
359.749	0.0257
360.117	0.0265
360.486	0.0279
360.854	0.0276
361.222	0.0261
361.591	0.024
361.959	0.0242
362.327	0.0242
362.695	0.0251
363.064	0.0273
363.432	0.0265
363.8	0.0253
364.168	0.0232
364.536	0.0232
364.904	0.0236
365.272	0.0243
365.64	0.0244
366.008	0.023
366.376	0.0213
366.743	0.0216
367.111	0.0211
367.479	0.0204
367.847	0.0196
368.214	0.0212
368.582	0.0224
368.949	0.0228
369.317	0.0207
369.684	0.0194
370.052	0.0204
370.419	0.0221
370.787	0.0227
371.154	0.0204
371.521	0.0198
371.889	0.018
372.256	0.0179
372.623	0.0169
372.99	0.0196
373.357	0.0199
373.724	0.0206
374.091	0.0206
374.458	0.0201
374.825	0.0201
375.192	0.0176
375.559	0.0175
375.926	0.0186
376.293	0.0176
376.659	0.0211
377.026	0.0181
377.393	0.0222
377.759	0.0196
378.126	0.0211
378.492	0.0174
378.859	0.0179
379.225	0.0186
379.592	0.0203
379.958	0.019
380.325	0.0179
380.691	0.0193
381.057	0.0203
381.423	0.0196
381.79	0.017
382.156	0.0145
382.522	0.0132
382.888	0.0142
383.254	0.0143
383.62	0.0166
383.986	0.0152
384.352	0.0168
384.718	0.0174
385.084	0.0183
385.449	0.0183
385.815	0.0173
386.181	0.0167
386.547	0.0152
386.912	0.0138
387.278	0.0133
387.643	0.0136
388.009	0.0131
388.374	0.0136
388.74	0.0122
389.105	0.0116
389.471	0.0117
389.836	0.013
390.201	0.0148
390.566	0.0145
390.932	0.013
391.297	0.0124
391.662	0.0134
392.027	0.015
392.392	0.0152
392.757	0.0147
393.122	0.0143
393.487	0.015
393.852	0.0149
394.217	0.0137
394.582	0.011
394.946	0.0108
395.311	0.0113
395.676	0.0132
396.04	0.0122
396.405	0.0142
396.77	0.0133
397.134	0.0139
397.499	0.0128
397.863	0.0133
398.227	0.0131
398.592	0.012
398.956	0.0105
399.32	0.009
399.685	0.0107
400.049	0.0133
400.413	0.0138
400.777	0.0105
401.141	0.0081
401.505	0.01
401.869	0.0134
402.233	0.015
402.597	0.0137
402.961	0.0115
403.325	0.0118
403.689	0.0117
404.053	0.0105
404.416	0.0092
404.78	0.0089
405.144	0.0078
405.507	0.008
405.871	0.008
406.234	0.0112
406.598	0.0106
406.961	0.0105
407.325	0.0103
407.688	0.0079
408.051	0.0084
408.415	0.006
408.778	0.0079
409.141	0.0071
409.504	0.0081
409.867	0.0086
410.23	0.0086
410.593	0.0096
410.956	0.0095
411.319	0.009
411.682	0.0094
412.045	0.0083
412.408	0.0111
412.771	0.0115
413.134	0.0115
413.496	0.0073
413.859	0.0041
414.222	0.0036
414.584	0.0054
414.947	0.0054
415.309	0.0059
415.672	0.004
416.034	0.0057
416.396	0.0052
416.759	0.0058
417.121	0.0056
417.483	0.0068
417.846	0.0088
418.208	0.0083
418.57	0.0071
418.932	0.0064
419.294	0.0063
419.656	0.0071
420.018	0.0074
420.38	0.0098
420.742	0.0115
421.104	0.0088
421.466	0.0084
421.827	0.008
422.189	0.0095
422.551	0.0058
422.912	0.0032
423.274	0.0027
423.636	0.0056
423.997	0.0079
424.359	0.0078
424.72	0.0064
425.081	0.0033
425.443	0.0026
425.804	0.0027
426.165	0.0028
426.527	0.004
426.888	0.0033
427.249	0.0056
427.61	0.0039
427.971	0.0042
428.332	0.0038
428.693	0.0063
429.054	0.0093
429.415	0.0103
429.776	0.0112
430.137	0.0086
430.498	0.0062
430.858	0.0044
431.219	0.0053
431.58	0.0079
431.94	0.0089
432.301	0.0063
432.661	0.0032
433.022	0.002
433.382	0.0053
433.743	0.0052
434.103	0.0056
434.463	0.0023
434.824	0.0041
435.184	0.0036
435.544	0.0035
435.904	0.0048
436.264	0.0038
436.624	0.0047
436.985	0.0011
437.345	0.0042
437.704	0.005
438.064	0.0076
438.424	0.0054
438.784	0.0053
439.144	0.0052
439.504	0.0036
439.863	0.0027
440.223	0.003
440.583	0.0057
440.942	0.0079
441.302	0.0074
441.661	0.0064
442.021	0.0056
442.38	0.0061
442.739	0.0053
443.099	0.0033
443.458	0.0028
443.817	0.0056
444.176	0.0074
444.536	0.0062
444.895	0.0027
445.254	0.002
445.613	0.0018
445.972	0.0014
446.331	0.0045
446.69	0.0049
447.049	0.0062
447.407	0.0027
447.766	0.0016
448.125	0.0001
448.484	-0.0004
448.842	0.0019
449.201	0.0038
449.559	0.0026
449.918	-0
450.276	0.0009
450.635	0.0034
450.993	0.005
451.352	0.0037
451.71	0.0035
452.068	0.0032
452.426	0.0037
452.785	0.006
453.143	0.0049
453.501	0.0022
453.859	0.0008
454.217	0.0029
454.575	0.0058
454.933	0.0051
455.291	0.0043
455.649	0.0031
456.006	0.0004
456.364	0.0003
456.722	0.001
457.079	0.0045
457.437	0.0015
457.795	0.0012
458.152	0.0001
458.51	0.0059
458.867	0.0065
459.225	0.0086
459.582	0.0066
459.939	0.0061
460.297	0.0057
460.654	0.0021
461.011	0.0036
461.368	-0.0018
461.725	0.0001
462.082	-0.0014
462.44	0.0021
462.797	0.0039
463.153	0.0047
463.51	0.0034
463.867	0.0019
464.224	0.0036
464.581	0.0059
464.938	0.0064
465.294	0.0023
465.651	0.0014
466.008	0.0005
466.364	0.0027
466.721	0.0011
467.077	0.0046
467.434	0.0018
467.79	0.0028
468.146	-0.0002
468.503	0.0005
468.859	-0.0003
469.215	0.0011
469.571	0.0006
469.927	-0.0009
470.284	-0.0022
470.64	0.0009
470.996	0.0031
471.352	0.0044
471.707	0.0035
472.063	0.0043
472.419	0.005
472.775	0.0053
473.131	0.0036
473.486	0.0033
473.842	0.0008
474.198	0.0028
474.553	0.003
474.909	0.0064
475.264	0.0056
475.62	0.0051
475.975	0.0044
476.331	0.006
476.686	0.0023
477.041	0.0025
477.396	0.0018
477.752	0.0037
478.107	0.0027
478.462	0.0031
478.817	0.0044
479.172	0.0058
479.527	0.0043
479.882	0.0055
480.237	0.0025
480.591	0.0014
480.946	-0.0006
481.301	0.0008
481.656	0.001
482.01	0.0012
482.365	-0.0017
482.72	-0.0021
483.074	-0.0025
483.429	0.0017
483.783	0.0019
484.137	0.0019
484.492	0.0001
484.846	0.0004
485.2	0.0017
485.555	0.0002
485.909	0.0003
486.263	0.0016
486.617	0.0015
486.971	0.0028
487.325	0.0027
487.679	0.0042
488.033	0.0027
488.387	0.0032
488.741	0.0022
489.094	0.002
489.448	-0.0019
489.802	-0.0025
490.156	-0.0001
490.509	0.0011
490.863	0.0019
491.216	0.0012
491.57	-0.0006
491.923	0.0005
492.277	-0.001
492.63	-0.0009
492.983	-0.0023
493.337	-0.0016
493.69	-0.0003
494.043	0.0001
494.396	-0.0005
494.749	0.0025
495.102	0.0003
495.455	0
495.808	-0.0021
496.161	0.0003
496.514	0.0007
496.867	0.0007
497.22	0.0011
497.572	0.0022
497.925	0.0011
498.278	0.0002
498.63	-0.0015
498.983	-0.0004
499.335	-0.001
499.688	-0.0013
500.04	-0.0028
500.393	-0.001
500.745	-0.0017
501.097	-0.0002
501.449	-0.0007
501.802	-0.0004
502.154	-0.0024
502.506	-0.002
502.858	-0.0012
503.21	0.0011
503.562	0.003
503.914	0.0051
504.266	0.0036
504.618	0.0021
504.969	-0.0012
505.321	-0.0015
505.673	-0.0007
506.025	0.0016
506.376	0.0034
506.728	0.0021
507.079	0.0006
507.431	0.0001
507.782	-0.0014
508.134	-0.001
508.485	-0.001
508.836	-0.0006
509.188	0.0015
509.539	-0.0004
509.89	0.0003
510.241	-0.002
510.592	-0.0003
510.943	-0.0003
511.294	-0.0008
511.645	0.0003
511.996	0.0014
512.347	0.0012
512.698	-0.0025
513.049	-0.0061
513.399	-0.0059
513.75	-0.003
514.101	-0.0017
514.451	-0.0009
514.802	-0.0035
515.152	-0.0038
515.503	-0.0023
515.853	0.0005
516.203	0.0022
516.554	0.0038
516.904	0.0022
517.254	0.0025
517.604	-0.0013
517.955	0.0004
518.305	-0.0004
518.655	0.0004
519.005	-0.0003
519.355	-0.0001
519.705	0.0016
520.055	-0.0004
520.404	-0.0015
520.754	-0.0029
521.104	-0.0036
521.454	-0.0013
521.803	-0.001
522.153	0.0003
522.502	0.0002
522.852	0.0003
523.201	-0.0007
523.551	-0.003
523.9	-0.0043
524.249	-0.0044
524.599	-0.0027
524.948	-0.0021
525.297	-0.0015
525.646	-0.0026
525.995	-0.0044
526.344	-0.0014
526.694	-0.0012
527.042	0.0031
527.391	0.0028
527.74	0.003
528.089	-0.0003
528.438	-0.0011
528.787	-0.0021
529.135	-0.0014
529.484	-0.0025
529.833	-0.0005
530.181	0.0004
530.53	0.0002
530.878	-0.0036
531.227	-0.0014
531.575	-0.0028
531.923	0.0001
532.271	-0.0051
532.62	-0.0052
532.968	-0.0044
533.316	-0.0027
533.664	0.0008
534.012	0.0001
534.36	-0.001
534.708	-0.0022
535.056	-0.0027
535.404	-0.0012
535.752	-0.0011
536.1	-0.0027
536.447	-0.0048
536.795	-0.0044
537.143	-0.0015
537.49	0.0036
537.838	0.0001
538.185	0.0009
538.533	-0.004
538.88	-0.0028
539.228	-0.0084
539.575	-0.0051
539.922	-0.0025
540.269	-0.0002
540.617	-0.0011
540.964	-0.0023
541.311	-0.002
541.658	-0.0041
542.005	-0.0039
542.352	-0.003
542.699	-0.0018
543.045	-0.0036
543.392	-0.0046
543.739	-0.0041
544.086	-0.0027
544.432	-0.0026
544.779	-0.0043
545.126	-0.0059
545.472	-0.0055
545.819	-0.0066
546.165	-0.0074
546.512	-0.0066
546.858	-0.0072
547.204	-0.0035
547.55	-0.0012
547.897	-0
548.243	-0.0014
548.589	-0.0084
548.935	-0.0066
549.281	-0.0051
549.627	0.0002
549.973	0.0013
550.319	0.0019
550.665	-0.0013
551.01	-0.0043
551.356	-0.0057
551.702	-0.0043
552.048	-0.0045
552.393	-0.0055
552.739	-0.0027
553.084	-0.0015
553.43	-0.002
553.775	-0.0044
554.12	-0.0021
554.466	-0.0026
554.811	0
555.156	-0.003
555.502	-0.0024
555.847	-0.0044
556.192	-0.0028
556.537	-0.0049
556.882	-0.007
557.227	-0.0077
557.572	-0.0067
557.917	-0.0082
558.261	-0.0063
558.606	-0.0067
558.951	-0.006
559.295	-0.0113
559.64	-0.0125
559.985	-0.0058
560.329	-0.0014
560.674	0.0001
561.018	-0.0042
561.363	-0.0043
561.707	-0.0034
562.051	-0.0034
562.395	-0.0051
562.74	-0.0072
563.084	-0.007
563.428	-0.0061
563.772	-0.0026
564.116	-0.0036
564.46	-0.0041
564.804	-0.0061
565.148	-0.0049
565.492	-0.006
565.835	-0.0038
566.179	-0.0056
566.523	-0.0055
566.866	-0.0076
567.21	-0.0085
567.554	-0.0095
567.897	-0.0083
568.24	-0.0054
568.584	-0.0039
568.927	-0.0052
569.271	-0.005
569.614	-0.0019
569.957	0.0013
570.3	-0.0026
570.643	-0.0054
570.986	-0.0087
571.329	-0.0056
571.672	-0.0063
572.015	-0.0041
572.358	-0.0047
572.701	-0.0031
573.044	-0.0072
573.387	-0.0045
573.729	-0.0032
574.072	0.0003
574.414	-0.0026
574.757	-0.0053
575.099	-0.0066
575.442	-0.0062
575.784	-0.0062
576.127	-0.0043
576.469	-0.0046
576.811	-0.0041
577.153	-0.0055
577.496	-0.0058
577.838	-0.0058
578.18	-0.0083
578.522	-0.0081
578.864	-0.0073
579.206	-0.0052
579.548	-0.0065
579.889	-0.0057
580.231	-0.0033
580.573	-0.0041
580.915	-0.0046
581.256	-0.0055
581.598	-0.0052
581.939	-0.0051
582.281	-0.0069
582.622	-0.0036
582.964	-0.005
583.305	-0.0048
583.646	-0.0048
583.988	-0.0023
584.329	-0.0041
584.67	-0.0039
585.011	-0.0062
585.352	-0.0042
585.693	-0.0057
586.034	-0.003
586.375	-0.003
586.716	-0.0056
587.057	-0.0081
587.398	-0.0068
587.738	-0.0061
588.079	-0.0058
588.42	-0.0072
588.76	-0.0074
589.101	-0.0064
589.441	-0.0046
589.782	-0.0035
590.122	-0.0046
590.463	-0.0065
590.803	-0.0072
591.143	-0.0104
591.483	-0.011
591.823	-0.0094
592.164	-0.006
592.504	-0.0042
592.844	-0.006
593.184	-0.0059
593.523	-0.007
593.863	-0.0043
594.203	-0.0038
594.543	-0.0042
594.883	-0.0063
595.222	-0.0031
595.562	-0.0019
595.901	-0.0033
596.241	-0.0042
596.58	-0.0056
596.92	-0.0044
597.259	-0.0069
597.599	-0.0057
597.938	-0.0061
598.277	-0.0059
598.616	-0.0087
598.955	-0.0079
599.295	-0.0098
599.634	-0.0037
599.973	-0.0064
600.312	-0.0025
600.65	-0.0059
600.989	-0.0022
601.328	-0.0008
601.667	-0.0028
602.005	-0.0042
602.344	-0.0069
602.683	-0.0056
603.021	-0.0056
603.36	-0.006
603.698	-0.0048
604.037	-0.0072
604.375	-0.0069
604.713	-0.0053
605.052	-0.0019
605.39	-0.0043
605.728	-0.0058
606.066	-0.0088
606.404	-0.0063
606.742	-0.0065
607.08	-0.0056
607.418	-0.0063
607.756	-0.0077
608.094	-0.0071
608.431	-0.007
608.769	-0.0088
609.107	-0.0075
609.444	-0.0092
609.782	-0.0048
610.12	-0.0041
610.457	-0.0032
610.794	-0.005
611.132	-0.0057
611.469	-0.0065
611.806	-0.0094
612.144	-0.0117
612.481	-0.0087
612.818	-0.0078
613.155	-0.008
613.492	-0.0098
613.829	-0.0049
614.166	-0.0029
614.503	-0.0018
614.84	-0.0029
615.176	-0.0054
615.513	-0.005
615.85	-0.0044
616.187	-0.0004
616.523	-0.0008
616.86	-0.0017
617.196	-0.0047
617.533	-0.0047
617.869	-0.0056
618.205	-0.0064
618.542	-0.0113
618.878	-0.0119
619.214	-0.0107
619.55	-0.0071
619.886	-0.0083
620.222	-0.0066
620.558	-0.0059
620.894	-0.0037
621.23	-0.0072
621.566	-0.0049
621.902	-0.0053
622.238	-0.002
622.573	-0.0034
622.909	-0.0038
623.244	-0.0082
623.58	-0.0126
623.916	-0.0116
624.251	-0.007
624.586	-0.0033
624.922	-0.0064
625.257	-0.01
625.592	-0.0095
625.927	-0.0095
626.263	-0.0064
626.598	-0.0057
626.933	-0.0053
627.268	-0.0037
627.603	-0.0045
627.938	-0.0025
628.272	-0.0041
628.607	-0.0038
628.942	-0.0071
629.277	-0.0054
629.611	-0.0049
629.946	-0.0034
630.281	-0.0036
630.615	-0.008
630.949	-0.0095
631.284	-0.0099
631.618	-0.0068
631.953	-0.0092
632.287	-0.0143
632.621	-0.0192
632.955	-0.0137
633.289	-0.0111
633.623	-0.0083
633.957	-0.0118
634.291	-0.0106
634.625	-0.0108
634.959	-0.0112
635.293	-0.0084
635.627	-0.0069
635.96	0.0016
636.294	0.0008
636.627	-0.0021
636.961	-0.0094
637.294	-0.0076
637.628	-0.0084
637.961	-0.0125
638.295	-0.011
638.628	-0.0057
638.961	-0.0009
639.294	-0.009
639.628	-0.0127
639.961	-0.0152
640.294	-0.0137
640.627	-0.0147
640.96	-0.0146
641.293	-0.0161
641.625	-0.0127
641.958	-0.0112
642.291	-0.0127
642.624	-0.012
642.956	-0.0159
643.289	-0.0103
643.621	-0.0117
643.954	-0.0109
644.286	-0.0128
644.619	-0.0122
644.951	-0.0118
645.283	-0.0062
645.616	-0.0107
645.948	-0.004
646.28	-0.0075
646.612	-0.006
646.944	-0.0104
647.276	-0.0123
647.608	-0.0105
647.94	-0.0107
648.272	-0.0074
648.603	-0.0017
648.935	-0.0052
649.267	-0.0061
649.598	-0.0147
649.93	-0.0089
650.261	-0.0089
650.593	-0.003
650.924	-0.0061
651.256	-0.0069
651.587	-0.0071
651.918	-0.0029
652.25	-0.0041
652.581	-0.0089
652.912	-0.0126
653.243	-0.0108
653.574	-0.0074
653.905	-0.0087
654.236	-0.009
654.567	-0.0065
654.897	-0.0082
655.228	-0.0088
655.559	-0.0087
655.89	-0.0065
656.22	-0.0075
656.551	-0.0069
656.881	0.0017
657.212	0.0016
657.542	0.0026
657.872	-0.0023
658.203	0.0031
658.533	0.0018
658.863	-0.0056
659.193	-0.0092
659.523	-0.017
659.853	-0.0166
660.183	-0.0149
660.513	-0.0135
660.843	-0.0113
661.173	-0.0128
661.503	-0.0141
661.833	-0.0178
662.162	-0.0156
662.492	-0.0123
662.822	-0.0106
663.151	-0.0083
663.481	-0.0129
663.81	-0.0091
664.139	-0.0136
664.469	-0.0135
664.798	-0.0106
665.127	-0.0069
665.456	-0.0029
665.785	-0.008
666.114	-0.0066
666.443	-0.0091
666.772	-0.0056
667.101	-0.0051
667.43	-0.0035
667.759	-0.0071
668.088	-0.01
668.416	-0.0127
668.745	-0.0113
669.074	-0.0113
669.402	-0.0097
669.731	-0.0049
670.059	-0.0064
670.388	-0.008
670.716	-0.0125
671.044	-0.009
671.372	-0.0037
671.701	-0.0015
672.029	-0.0064
672.357	-0.0098
672.685	-0.0122
673.013	-0.0082
673.341	-0.0086
673.669	-0.0082
673.996	-0.0095
674.324	-0.0073
674.652	-0.0048
674.98	-0.006
675.307	-0.0055
675.635	-0.009
675.962	-0.0092
676.29	-0.0152
676.617	-0.0182
676.945	-0.0225
677.272	-0.0229
677.599	-0.0207
677.926	-0.0166
678.253	-0.0146
678.581	-0.0121
678.908	-0.007
679.235	-0.0059
679.561	-0.0068
679.888	-0.0083
680.215	-0.0058
680.542	-0.004
680.869	-0.0067
681.195	-0.008
681.522	-0.0092
681.849	-0.0052
682.175	-0.0074
682.502	-0.0142
682.828	-0.0192
683.154	-0.0194
683.481	-0.0115
683.807	-0.0088
684.133	-0.0101
684.459	-0.0107
684.785	-0.0107
685.111	-0.0088
685.437	-0.0091
685.763	-0.012
686.089	-0.0107
686.415	-0.0125
686.741	-0.0115
687.067	-0.0099
687.392	-0.0094
687.718	-0.0046
688.043	-0.01
688.369	-0.0079
688.694	-0.0122
689.02	-0.0077
689.345	-0.0115
689.67	-0.0103
689.996	-0.0116
690.321	-0.0105
690.646	-0.0081
690.971	-0.0048
691.296	-0.0023
691.621	-0.0045
691.946	-0.0066
692.271	-0.0048
692.596	-0.009
692.921	-0.0067
693.245	-0.0113
693.57	-0.0077
693.895	-0.011
694.219	-0.01
694.544	-0.0101
694.868	-0.0112
695.193	-0.0111
695.517	-0.0103
695.841	-0.0096
696.166	-0.0126
696.49	-0.0146
696.814	-0.0162
697.138	-0.0149
697.462	-0.012
697.786	-0.0092
698.11	-0.004
698.434	-0.0054
698.758	-0.0095
699.081	-0.0069
699.405	-0.0098
699.729	-0.0022
700.052	-0.007
700.376	-0.004
700.7	-0.0033
701.023	-0.0059
701.346	-0.0088
701.67	-0.0144
701.993	-0.0048
702.316	-0.0021
702.639	-0.0037
702.963	-0.0105
703.286	-0.0122
703.609	-0.0079
703.932	-0.0106
704.255	-0.0082
704.578	-0.016
704.9	-0.0192
705.223	-0.022
705.546	-0.0194
705.868	-0.0149
706.191	-0.01
706.514	-0.0106
706.836	-0.0063
707.159	-0.01
707.481	-0.0053
707.803	-0.008
708.126	-0.0089
708.448	-0.0094
708.77	-0.0107
709.092	-0.0092
709.414	-0.0061
709.736	-0.0079
710.058	-0.004
710.38	-0.0068
710.702	-0.0065
711.024	-0.011
711.345	-0.0088
711.667	-0.0068
711.989	-0.0055
712.31	-0.0074
712.632	-0.0111
712.953	-0.0138
713.275	-0.0126
713.596	-0.0089
713.917	-0.0039
714.239	-0.0048
714.56	0.0002
714.881	-0.0065
715.202	-0.008
715.523	-0.0133
715.844	-0.0111
716.165	-0.0082
716.486	-0.0043
716.807	-0.0062
717.128	-0.008
717.448	-0.0115
717.769	-0.0058
718.09	-0.0085
718.41	-0.0079
718.731	-0.0062
719.051	-0.0068
719.372	-0.0092
719.692	-0.0171
720.012	-0.0181
720.332	-0.0158
720.653	-0.0151
720.973	-0.0111
721.293	-0.0118
721.613	-0.012
721.933	-0.0117
722.253	-0.0095
722.573	-0.0096
722.892	-0.0116
723.212	-0.0132
723.532	-0.0091
723.851	-0.0056
724.171	-0.0057
724.491	-0.0073
724.81	-0.009
725.129	-0.0151
725.449	-0.0165
725.768	-0.0163
726.087	-0.0079
726.407	-0.0091
726.726	-0.0111
727.045	-0.0092
727.364	-0.0097
727.683	-0.0051
728.002	-0.0051
728.321	-0.0035
728.64	-0.0097
728.958	-0.0169
729.277	-0.0153
729.596	-0.0118
729.914	-0.005
730.233	-0.0046
730.551	-0.0048
730.87	-0.007
731.188	-0.0102
731.507	-0.0091
731.825	-0.0094
732.143	-0.0083
732.461	-0.0066
732.779	-0.009
733.097	-0.0057
733.415	-0.009
733.733	-0.0105
734.051	-0.0136
734.369	-0.0138
734.687	-0.0093
735.005	-0.0069
735.322	-0.0113
735.64	-0.0157
735.957	-0.0184
736.275	-0.0164
736.592	-0.0178
736.91	-0.0189
737.227	-0.0184
737.544	-0.0175
737.862	-0.0159
738.179	-0.0137
738.496	-0.0122
738.813	-0.0114
739.13	-0.0135
739.447	-0.013
739.764	-0.0136
740.081	-0.0166
740.398	-0.0186
740.714	-0.0144
741.031	-0.009
741.348	-0.0095
741.664	-0.0086
741.981	-0.0113
742.297	-0.0106
742.614	-0.0119
742.93	-0.0076
743.246	-0.0066
743.563	-0.0103
743.879	-0.0099
744.195	-0.0111
744.511	-0.01
744.827	-0.0123
745.143	-0.0134
745.459	-0.0146
745.775	-0.0129
746.091	-0.0106
746.406	-0.0052
746.722	-0.0092
747.038	-0.0107
747.353	-0.0115
747.669	-0.0098
747.984	-0.0058
748.3	-0.0061
748.615	-0.0038
748.93	-0.0028
749.246	-0.0107
749.561	-0.01
749.876	-0.01
750.191	-0.0056
750.506	-0.0089
750.821	-0.0166
751.136	-0.0156
751.451	-0.0098
751.766	-0.0069
752.08	-0.0085
752.395	-0.0166
752.71	-0.0113
753.024	-0.0123
753.339	-0.0132
753.653	-0.0137
753.968	-0.0102
754.282	-0.0051
754.596	-0.003
754.911	-0.0134
755.225	-0.0129
755.539	-0.0153
755.853	-0.0027
756.167	-0.0049
756.481	-0.0037
756.795	-0.0058
757.109	-0.0056
757.423	-0.0121
757.736	-0.0165
758.05	-0.019
758.364	-0.0139
758.677	-0.0085
758.991	-0.0049
759.304	-0.0083
759.618	-0.0077
759.931	-0.0062
760.244	-0.0042
760.558	-0.0086
760.871	-0.0127
761.184	-0.0127
761.497	-0.0111
761.81	-0.0093
762.123	-0.0088
762.436	-0.0115
762.749	-0.0065
763.062	-0.0089
763.374	-0.0078
763.687	-0.0134
764	-0.0148
764.312	-0.0112
764.625	-0.0116
764.937	-0.0118
765.25	-0.0134
765.562	-0.0092
765.874	-0.0086
766.186	-0.0107
766.499	-0.0127
766.811	-0.0143
767.123	-0.0138
767.435	-0.0132
767.747	-0.0095
768.059	-0.0087
768.37	-0.0107
768.682	-0.0143
768.994	-0.0161
769.306	-0.0173
769.617	-0.0136
769.929	-0.0146
770.24	-0.0073
770.552	-0.0109
770.863	-0.008
771.174	-0.0103
771.486	-0.0089
771.797	-0.0116
772.108	-0.0164
772.419	-0.0164
772.73	-0.0139
773.041	-0.0096
773.352	-0.0079
773.663	-0.0076
773.974	-0.0082
774.285	-0.0129
774.595	-0.0129
774.906	-0.0162
775.217	-0.01
775.527	-0.0135
775.838	-0.01
776.148	-0.016
776.458	-0.0118
776.769	-0.0141
777.079	-0.0166
777.389	-0.0181
777.699	-0.0125
778.009	-0.0081
778.319	-0.0083
778.629	-0.0153
778.939	-0.0196
779.249	-0.0144
779.559	-0.0089
779.869	-0.0019
780.178	-0.0034
780.488	-0.0082
780.798	-0.0071
781.107	-0.0155
781.417	-0.0119
781.726	-0.01
782.035	-0.0035
782.345	-0.0071
782.654	-0.0179
782.963	-0.0205
783.272	-0.0167
783.581	-0.0109
783.89	-0.0126
784.199	-0.0133
784.508	-0.0144
784.817	-0.0098
785.126	-0.0112
785.434	-0.0107
785.743	-0.0061
786.052	-0.0043
786.36	-0.004
786.669	-0.0147
786.977	-0.0155
787.285	-0.0136
787.594	-0.0038
787.902	-0.006
788.21	-0.006
788.518	-0.0113
788.826	-0.0061
789.135	-0.011
789.442	-0.014
789.75	-0.0198
790.058	-0.0176
790.366	-0.0168
790.674	-0.0142
790.981	-0.0123
791.289	-0.009
791.597	-0.0126
791.904	-0.0062
792.212	-0.0088
792.519	-0.0093
792.826	-0.0162
793.134	-0.0115
793.441	-0.0085
793.748	-0.0066
794.055	-0.0065
794.362	-0.0054
794.669	-0.0112
794.976	-0.0134
795.283	-0.0179
795.59	-0.0127
795.897	-0.0152
796.203	-0.0093
796.51	-0.0054
796.817	-0.006
797.123	-0.0089
797.43	-0.0122
797.736	-0.0066
798.042	-0.0031
798.349	-0.0067
798.655	-0.0051
798.961	-0.0054
799.267	-0.0042
799.573	-0.0107
799.879	-0.0145
800.185	-0.0152
800.491	-0.0124
800.797	-0.0027
801.103	-0.0004
801.408	-0.0037
801.714	-0.0169
802.02	-0.0194
802.325	-0.0174
802.631	-0.0057
802.936	-0.003
803.242	-0.0078
803.547	-0.0036
803.852	-0.0035
804.157	0.0032
804.462	-0.0081
804.768	-0.0069
805.073	-0.0214
805.378	-0.0207
805.682	-0.0196
805.987	-0.018
806.292	-0.0151
806.597	-0.0162
806.902	-0.0021
807.206	-0.0093
807.511	-0.0045
807.815	-0.0149
808.12	-0.0058
808.424	-0.0055
808.728	-0.0029
809.033	-0.0038
809.337	-0.0084
809.641	-0.0053
809.945	-0.0052
810.249	-0.0064
810.553	-0.009
810.857	-0.0093
811.161	-0.01
811.465	-0.0025
811.768	0.007
812.072	0.0129
812.376	0.0055
812.679	-0
812.983	-0.0032
813.286	-0.0004
813.59	-0.0108
813.893	-0.0098
814.196	-0.0101
814.499	-0.0112
814.803	-0.0158
815.106	-0.0209
815.409	-0.0235
815.712	-0.0195
816.015	-0.0162
816.318	-0.0079
816.62	-0.0136
816.923	-0.0097
817.226	-0.0093
817.528	-0.0131
817.831	-0.0166
818.133	-0.0163
818.436	-0.0029
818.738	-0.001
819.041	-0.0025
819.343	-0.0019
819.645	-0.0032
819.947	0.0016
820.249	-0.0039
820.551	-0.0011
820.853	-0.0027
821.155	-0.0041
821.457	-0.0066
821.759	-0.0186
822.061	-0.0209
822.362	-0.0238
822.664	-0.0034
822.966	0.0012
823.267	-0.0017
823.569	-0.0149
823.87	-0.0119
824.171	-0.0121
824.473	-0.0095
824.774	-0.0114
825.075	-0.0107
825.376	-0.0159
825.677	-0.0186
825.978	-0.0206
826.279	-0.0181
826.58	-0.014
826.881	-0.0144
827.181	-0.0138
827.482	-0.0165
827.783	-0.0102
828.083	-0.01
828.384	-0.0077
828.684	-0.0097
828.985	-0.0073
829.285	-0.0113
829.585	-0.0073
829.885	-0.0039
830.185	0.0107
830.486	0.0089
830.786	-0.002
831.086	-0.018
831.385	-0.0188
831.685	-0.0127
831.985	-0.0236
832.285	-0.0237
832.585	-0.0197
832.884	-0.0145
833.184	-0.0143
833.483	-0.0118
833.783	-0.0013
834.082	-0.0019
834.381	-0.0113
834.681	-0.0187
834.98	-0.0232
835.279	-0.0156
835.578	-0.0085
835.877	-0.0106
836.176	-0.0099
836.475	-0.0133
836.774	-0.0124
837.072	-0.0114
837.371	-0.0169
837.67	-0.0184
837.968	-0.0198
838.267	0.0003
838.565	0.0174
838.864	0.014
839.162	0.0033
839.46	-0.0041
839.759	0.0024
840.057	0.0031
840.355	0.007
840.653	-0.0029
840.951	0.0012
841.249	-0.009
841.547	-0.0093
841.845	-0.0222
842.142	-0.0154
842.44	-0.0133
842.738	-0.0205
843.035	-0.028
843.333	-0.0276
843.63	-0.0153
843.928	-0.0193
844.225	-0.0185
844.522	-0.021
844.82	0.0002
845.117	0.0078
845.414	0.0138
845.711	-0.0028
846.008	-0.006
846.305	-0.0151
846.602	-0.0175
846.898	-0.0246
847.195	-0.0209
847.492	-0.0277
847.788	-0.0233
848.085	-0.0213
848.382	-0.0036
848.678	-0.0114
848.974	-0.0017
849.271	0.0024
849.567	0.0106
849.863	0.0137
850.159	0.0017
850.455	-0.0101
850.751	-0.0254
851.047	-0.0235
851.343	-0.012
851.639	-0.0052
851.935	-0.0021
852.23	-0.0196
852.526	-0.0277
852.822	-0.018
853.117	-0.0083
853.413	0.0013
853.708	-0.0054
854.003	-0.0082
854.299	-0.0112
854.594	-0.02
854.889	-0.0078
855.184	-0.0169
855.479	-0.0201
855.774	-0.0185
856.069	-0.0262
856.364	-0.0361
856.659	-0.0326
856.954	-0.0111
857.248	0.019
857.543	0.0075
857.837	-0.0023
858.132	-0.0013
858.426	-0.0039
858.721	-0.0078
859.015	-0.0316
859.309	-0.0247
859.604	-0.0213
859.898	-0.0044
860.192	0.0076
860.486	0.0099
860.78	0.011
861.074	0.0041
861.367	-0.0192
861.661	-0.0273
861.955	-0.0281
862.248	-0.0075
862.542	0.0043
862.836	0.0144
863.129	0.0108
863.422	-0.0044
863.716	-0.0246
864.009	-0.0295
864.302	-0.0434
864.595	-0.042
864.889	-0.0309
865.182	-0.026
865.475	-0.0214
865.767	-0.027
866.06	-0.0223
866.353	-0.0282
866.646	-0.0063
866.938	0.015
867.231	0.0175
867.524	0.0003
867.816	-0.0281
868.109	-0.0194
868.401	-0.0246
868.693	-0.001
868.985	-0.0033
869.278	0.0139
869.57	0.0061
869.862	-0.0058
870.154	0.0028
870.446	0.0138
870.738	0.0135
871.029	0.0226
871.321	0.0153
871.613	0.0394
871.904	-0.0019
872.196	-0.0189
872.487	-0.0334
872.779	-0.0012
873.07	0.0227
873.362	0.0151
873.653	-0.0081
873.944	-0.0134
874.235	-0.0037
874.526	0.0045
874.817	0.0085
875.108	-0.0096
875.399	0.0007
875.69	-0.0205
875.981	-0.0299
876.271	-0.0142
876.562	-0.0199
876.853	-0.001
877.143	-0.0482
877.434	-0.0457
877.724	-0.0753
878.014	-0.0582
878.305	-0.0501
878.595	-0.0422
878.885	-0.0792
879.175	-0.0738
879.465	-0.0616
879.755	-0.0208
880.045	-0.0237
880.335	-0.0229
880.624	-0.0392
880.914	-0.0392
