Data from 40SS02BU-alt1-2_080917_1a_Absorbance_10-52-09-734.txt Node
Date: Fri Aug 11 10:52:09 MDT 2017
User: Tank Lab
Spectrometer: FLMS01220
Trigger mode: 0
Integration Time (sec): 1.000000E-1
Scans to average: 10
Electric dark correction enabled: true
Nonlinearity correction enabled: false
Boxcar width: 1
XAxis mode: Wavelengths
Number of Pixels in Spectrum: 2048
>>>>>Begin Spectral Data<<<<<
179.47	0.0238
179.856	0.0238
180.241	0.0844
180.626	0.1988
181.011	-0.0129
181.396	0.2973
181.781	2.2014
182.166	-0
182.551	-0.1948
182.936	0.2063
183.321	-0
183.706	0.5627
184.091	0.6173
184.476	-0.1361
184.86	0.2831
185.245	0.1736
185.63	-0
186.015	-0
186.399	-0.1116
186.784	-1.2874
187.169	-0.6486
187.553	-0
187.938	0.5068
188.322	0.2148
188.707	0.1152
189.091	0.0924
189.475	0.093
189.86	0.1333
190.244	0.124
190.629	0.1304
191.013	0.1561
191.397	0.1974
191.781	0.2306
192.165	0.2416
192.55	0.2488
192.934	0.265
193.318	0.2796
193.702	0.2891
194.086	0.2905
194.47	0.2865
194.854	0.2879
195.238	0.2803
195.622	0.2693
196.006	0.2521
196.389	0.2548
196.773	0.25
197.157	0.2561
197.541	0.2495
197.924	0.2552
198.308	0.256
198.692	0.2539
199.075	0.2476
199.459	0.2484
199.843	0.2507
200.226	0.2556
200.61	0.2595
200.993	0.2513
201.376	0.245
201.76	0.2384
202.143	0.2455
202.527	0.2495
202.91	0.2473
203.293	0.2461
203.676	0.2476
204.059	0.2492
204.443	0.2488
204.826	0.2419
205.209	0.2411
205.592	0.239
205.975	0.2389
206.358	0.2357
206.741	0.2336
207.124	0.2319
207.507	0.2311
207.89	0.2308
208.273	0.2315
208.655	0.2271
209.038	0.2243
209.421	0.2225
209.804	0.2263
210.186	0.2278
210.569	0.2273
210.951	0.227
211.334	0.2253
211.717	0.2243
212.099	0.2198
212.482	0.2185
212.864	0.2188
213.246	0.2185
213.629	0.2175
214.011	0.215
214.393	0.2156
214.776	0.2177
215.158	0.2179
215.54	0.2178
215.922	0.2133
216.305	0.212
216.687	0.2103
217.069	0.2078
217.451	0.2089
217.833	0.2105
218.215	0.2139
218.597	0.2118
218.979	0.2083
219.361	0.2069
219.742	0.2055
220.124	0.2046
220.506	0.202
220.888	0.2013
221.27	0.1991
221.651	0.1987
222.033	0.1999
222.415	0.2008
222.796	0.2004
223.178	0.1976
223.559	0.1975
223.941	0.1966
224.322	0.1952
224.704	0.1956
225.085	0.1965
225.466	0.1961
225.848	0.1922
226.229	0.1891
226.61	0.1886
226.992	0.1889
227.373	0.1891
227.754	0.1871
228.135	0.1867
228.516	0.1855
228.897	0.1873
229.278	0.185
229.659	0.1841
230.04	0.1819
230.421	0.1826
230.802	0.1812
231.183	0.181
231.564	0.1793
231.944	0.1781
232.325	0.1773
232.706	0.176
233.087	0.1763
233.467	0.1744
233.848	0.1755
234.229	0.1743
234.609	0.1739
234.99	0.1711
235.37	0.1709
235.751	0.1715
236.131	0.1708
236.511	0.1701
236.892	0.1677
237.272	0.1685
237.652	0.1686
238.033	0.1683
238.413	0.1662
238.793	0.1662
239.173	0.1654
239.553	0.1646
239.933	0.1635
240.313	0.1635
240.694	0.1653
241.074	0.1633
241.453	0.1624
241.833	0.1599
242.213	0.1599
242.593	0.16
242.973	0.1595
243.353	0.1577
243.732	0.1556
244.112	0.1539
244.492	0.1534
244.872	0.1542
245.251	0.1553
245.631	0.1548
246.01	0.1523
246.39	0.1507
246.769	0.1509
247.149	0.1511
247.528	0.1505
247.908	0.1488
248.287	0.1481
248.666	0.149
249.045	0.1489
249.425	0.1492
249.804	0.1479
250.183	0.1479
250.562	0.148
250.941	0.148
251.32	0.1473
251.699	0.1471
252.078	0.1453
252.457	0.1441
252.836	0.1429
253.215	0.142
253.594	0.1416
253.973	0.14
254.352	0.1404
254.731	0.139
255.109	0.1384
255.488	0.1379
255.867	0.138
256.245	0.1387
256.624	0.1383
257.002	0.1388
257.381	0.1375
257.759	0.137
258.138	0.1363
258.516	0.1363
258.895	0.1357
259.273	0.1355
259.651	0.1343
260.03	0.1336
260.408	0.1325
260.786	0.1326
261.164	0.1323
261.542	0.1318
261.921	0.1306
262.299	0.1286
262.677	0.1289
263.055	0.129
263.433	0.1296
263.811	0.1289
264.188	0.1288
264.566	0.1283
264.944	0.1275
265.322	0.1257
265.7	0.1255
266.077	0.1249
266.455	0.1252
266.833	0.1241
267.21	0.1226
267.588	0.1217
267.966	0.1214
268.343	0.1216
268.721	0.1221
269.098	0.1225
269.475	0.1224
269.853	0.1196
270.23	0.1173
270.607	0.1172
270.985	0.1159
271.362	0.1165
271.739	0.1145
272.116	0.1146
272.494	0.1132
272.871	0.1124
273.248	0.1106
273.625	0.1098
274.002	0.1085
274.379	0.1101
274.756	0.1093
275.132	0.1099
275.509	0.1106
275.886	0.111
276.263	0.1102
276.64	0.1086
277.016	0.1066
277.393	0.1056
277.77	0.1042
278.146	0.1039
278.523	0.103
278.899	0.1029
279.276	0.1037
279.652	0.104
280.029	0.1036
280.405	0.1017
280.782	0.1016
281.158	0.1006
281.534	0.1017
281.91	0.1004
282.287	0.0996
282.663	0.0973
283.039	0.0972
283.415	0.0961
283.791	0.0958
284.167	0.0947
284.543	0.0964
284.919	0.0963
285.295	0.0963
285.671	0.0932
286.047	0.0928
286.423	0.0928
286.799	0.0937
287.174	0.0932
287.55	0.0924
287.926	0.0914
288.301	0.091
288.677	0.0898
289.053	0.0885
289.428	0.0873
289.804	0.087
290.179	0.0882
290.555	0.0864
290.93	0.0854
291.305	0.0833
291.681	0.0829
292.056	0.0829
292.431	0.0831
292.806	0.0845
293.182	0.0848
293.557	0.0859
293.932	0.0852
294.307	0.0842
294.682	0.0824
295.057	0.0814
295.432	0.0809
295.807	0.0812
296.182	0.081
296.557	0.0806
296.932	0.0812
297.306	0.0823
297.681	0.0815
298.056	0.0799
298.43	0.078
298.805	0.0781
299.18	0.0779
299.554	0.0765
299.929	0.0753
300.303	0.0741
300.678	0.074
301.052	0.0749
301.427	0.0753
301.801	0.0755
302.175	0.0733
302.55	0.0716
302.924	0.072
303.298	0.0723
303.672	0.0717
304.046	0.0699
304.421	0.0707
304.795	0.0729
305.169	0.0732
305.543	0.073
305.917	0.0698
306.291	0.0694
306.664	0.0675
307.038	0.0669
307.412	0.0659
307.786	0.0674
308.16	0.0689
308.533	0.0681
308.907	0.0669
309.281	0.0665
309.654	0.0664
310.028	0.0653
310.401	0.0643
310.775	0.0644
311.148	0.0647
311.522	0.0637
311.895	0.0645
312.268	0.0639
312.642	0.0641
313.015	0.0643
313.388	0.0642
313.761	0.0647
314.135	0.0621
314.508	0.0603
314.881	0.0596
315.254	0.0603
315.627	0.0608
316	0.0615
316.373	0.0602
316.746	0.0606
317.118	0.0577
317.491	0.0573
317.864	0.057
318.237	0.0587
318.61	0.0572
318.982	0.0573
319.355	0.0561
319.727	0.0562
320.1	0.0557
320.473	0.0538
320.845	0.0525
321.218	0.0521
321.59	0.0521
321.962	0.0543
322.335	0.053
322.707	0.0528
323.079	0.0525
323.452	0.0525
323.824	0.0524
324.196	0.052
324.568	0.0529
324.94	0.0529
325.312	0.0517
325.684	0.0513
326.056	0.0524
326.428	0.0523
326.8	0.0506
327.172	0.0478
327.544	0.0482
327.915	0.0471
328.287	0.0495
328.659	0.0491
329.031	0.0501
329.402	0.0483
329.774	0.048
330.145	0.0458
330.517	0.045
330.888	0.0462
331.26	0.0483
331.631	0.0474
332.003	0.0443
332.374	0.0436
332.745	0.0451
333.117	0.0457
333.488	0.0447
333.859	0.0436
334.23	0.0428
334.601	0.0425
334.972	0.0415
335.343	0.0418
335.714	0.0414
336.085	0.0412
336.456	0.0405
336.827	0.0397
337.198	0.0402
337.569	0.0403
337.94	0.0395
338.31	0.0389
338.681	0.0388
339.052	0.0402
339.422	0.0404
339.793	0.0403
340.164	0.0403
340.534	0.0405
340.905	0.0404
341.275	0.0387
341.645	0.0385
342.016	0.0384
342.386	0.0389
342.756	0.0384
343.127	0.0376
343.497	0.0368
343.867	0.0353
344.237	0.035
344.607	0.0358
344.977	0.0379
345.347	0.0369
345.717	0.0368
346.087	0.0346
346.457	0.0338
346.827	0.0314
347.197	0.0318
347.567	0.0331
347.936	0.0349
348.306	0.0351
348.676	0.0362
349.046	0.0353
349.415	0.0357
349.785	0.0347
350.154	0.0342
350.524	0.0329
350.893	0.0319
351.263	0.0324
351.632	0.0325
352.001	0.0328
352.371	0.0328
352.74	0.0313
353.109	0.0298
353.478	0.0297
353.847	0.0299
354.217	0.0313
354.586	0.0294
354.955	0.0284
355.324	0.0277
355.693	0.0286
356.062	0.0292
356.43	0.0297
356.799	0.0281
357.168	0.027
357.537	0.0252
357.906	0.0276
358.274	0.0321
358.643	0.0332
359.011	0.0323
359.38	0.0288
359.749	0.0271
360.117	0.0282
360.486	0.0277
360.854	0.0277
361.222	0.0273
361.591	0.0269
361.959	0.0274
362.327	0.0255
362.695	0.0267
363.064	0.0283
363.432	0.0275
363.8	0.0256
364.168	0.025
364.536	0.024
364.904	0.0236
365.272	0.0225
365.64	0.0236
366.008	0.0234
366.376	0.0235
366.743	0.0255
367.111	0.0248
367.479	0.0241
367.847	0.0206
368.214	0.0221
368.582	0.0232
368.949	0.0228
369.317	0.022
369.684	0.0221
370.052	0.0243
370.419	0.0252
370.787	0.0237
371.154	0.0221
371.521	0.0219
371.889	0.0191
372.256	0.019
372.623	0.0173
372.99	0.0201
373.357	0.0188
373.724	0.0205
374.091	0.0196
374.458	0.0216
374.825	0.0201
375.192	0.0193
375.559	0.0184
375.926	0.0203
376.293	0.0193
376.659	0.0191
377.026	0.0169
377.393	0.0199
377.759	0.0199
378.126	0.0206
378.492	0.0163
378.859	0.0172
379.225	0.0179
379.592	0.0187
379.958	0.0184
380.325	0.017
380.691	0.0201
381.057	0.0209
381.423	0.0222
381.79	0.0199
382.156	0.0168
382.522	0.0149
382.888	0.0149
383.254	0.0161
383.62	0.0185
383.986	0.018
384.352	0.0194
384.718	0.0196
385.084	0.0191
385.449	0.0178
385.815	0.0159
386.181	0.0164
386.547	0.0154
386.912	0.0153
387.278	0.015
387.643	0.0151
388.009	0.0129
388.374	0.013
388.74	0.0119
389.105	0.0143
389.471	0.0161
389.836	0.0165
390.201	0.0148
390.566	0.0123
390.932	0.0115
391.297	0.0125
391.662	0.0139
392.027	0.0161
392.392	0.0164
392.757	0.0174
393.122	0.0166
393.487	0.0162
393.852	0.0148
394.217	0.0125
394.582	0.012
394.946	0.0107
395.311	0.0113
395.676	0.0093
396.04	0.0093
396.405	0.0099
396.77	0.0124
397.134	0.0124
397.499	0.0127
397.863	0.0104
398.227	0.0115
398.592	0.0123
398.956	0.0123
399.32	0.0117
399.685	0.0105
400.049	0.0134
400.413	0.013
400.777	0.0109
401.141	0.0101
401.505	0.0092
401.869	0.012
402.233	0.0119
402.597	0.0125
402.961	0.0111
403.325	0.0117
403.689	0.0128
404.053	0.012
404.416	0.0109
404.78	0.011
405.144	0.0113
405.507	0.0108
405.871	0.0099
406.234	0.0106
406.598	0.0115
406.961	0.0136
407.325	0.0138
407.688	0.0119
408.051	0.0096
408.415	0.0105
408.778	0.0095
409.141	0.0093
409.504	0.0067
409.867	0.0087
410.23	0.0101
410.593	0.0143
410.956	0.0136
411.319	0.0118
411.682	0.0085
412.045	0.0079
412.408	0.0106
412.771	0.0107
413.134	0.0109
413.496	0.0085
413.859	0.009
414.222	0.0094
414.584	0.0077
414.947	0.0051
415.309	0.0073
415.672	0.0082
416.034	0.0102
416.396	0.0056
416.759	0.0055
417.121	0.0063
417.483	0.0096
417.846	0.0109
418.208	0.0101
418.57	0.01
418.932	0.0098
419.294	0.0107
419.656	0.0089
420.018	0.0086
420.38	0.0089
420.742	0.0099
421.104	0.0084
421.466	0.008
421.827	0.0092
422.189	0.0103
422.551	0.0084
422.912	0.0078
423.274	0.0053
423.636	0.0053
423.997	0.0039
424.359	0.0064
424.72	0.0077
425.081	0.007
425.443	0.0073
425.804	0.0062
426.165	0.0054
426.527	0.0047
426.888	0.0046
427.249	0.0039
427.61	0.0007
427.971	0.0013
428.332	0.0038
428.693	0.0084
429.054	0.01
429.415	0.0101
429.776	0.0104
430.137	0.0109
430.498	0.0093
430.858	0.007
431.219	0.004
431.58	0.0064
431.94	0.0053
432.301	0.0064
432.661	0.0061
433.022	0.0074
433.382	0.0072
433.743	0.0074
434.103	0.007
434.463	0.0078
434.824	0.0073
435.184	0.0069
435.544	0.0053
435.904	0.0049
436.264	0.0046
436.624	0.0055
436.985	0.0038
437.345	0.0056
437.704	0.0058
438.064	0.0066
438.424	0.0041
438.784	0.0063
439.144	0.0074
439.504	0.0072
439.863	0.0035
440.223	0.0027
440.583	0.0065
440.942	0.0087
441.302	0.0073
441.661	0.0037
442.021	0.0037
442.38	0.0059
442.739	0.008
443.099	0.0053
443.458	0.0066
443.817	0.0078
444.176	0.0096
444.536	0.0089
444.895	0.0043
445.254	0.0029
445.613	0.0006
445.972	0.003
446.331	0.0044
446.69	0.0019
447.049	0.0003
447.407	-0.0004
447.766	0.0003
448.125	0.0024
448.484	0.0026
448.842	0.004
449.201	0.0039
449.559	0.0029
449.918	0.0037
450.276	0.0027
450.635	0.0042
450.993	0.0041
451.352	0.005
451.71	0.0041
452.068	0.0043
452.426	0.002
452.785	0.0039
453.143	0.0029
453.501	0.002
453.859	-0.0003
454.217	0.0004
454.575	0.0045
454.933	0.0046
455.291	0.0058
455.649	0.0065
456.006	0.0067
456.364	0.0046
456.722	0.0033
457.079	0.0038
457.437	0.0038
457.795	0.0047
458.152	0.0018
458.51	0.0018
458.867	0.0013
459.225	0.0045
459.582	0.0049
459.939	0.002
460.297	0.0046
460.654	0.0059
461.011	0.0085
461.368	0.0015
461.725	0.0007
462.082	-0.0002
462.44	0.0031
462.797	0.0031
463.153	0.0031
463.51	0.0032
463.867	0.0015
464.224	0.002
464.581	0.003
464.938	0.0055
465.294	0.0044
465.651	0.0025
466.008	0.0015
466.364	0.0022
466.721	0.0029
467.077	0.0033
467.434	0.002
467.79	0.0004
468.146	0.001
468.503	0.0014
468.859	0.0024
469.215	0.0005
469.571	0.0006
469.927	-0.0014
470.284	-0.0016
470.64	-0.0002
470.996	0.0037
471.352	0.0061
471.707	0.0061
472.063	0.0049
472.419	0.0059
472.775	0.0066
473.131	0.0056
473.486	0.0029
473.842	-0.0001
474.198	0.0023
474.553	0.006
474.909	0.0094
475.264	0.0072
475.62	0.0035
475.975	0.0027
476.331	0.0052
476.686	0.0032
477.041	0.0028
477.396	0.0002
477.752	0.0041
478.107	0.0033
478.462	0.0062
478.817	0.0061
479.172	0.006
479.527	0.0033
479.882	0.0031
480.237	0.0017
480.591	0.0009
480.946	-0.0007
481.301	-0
481.656	0.0009
482.01	0.001
482.365	0.0011
482.72	0.001
483.074	0.0015
483.429	0.0033
483.783	0.004
484.137	0.0015
484.492	-0.0001
484.846	0.0025
485.2	0.0046
485.555	0.0043
485.909	0.0027
486.263	0.0044
486.617	0.0056
486.971	0.0041
487.325	0.0043
487.679	0.0032
488.033	0.0033
488.387	0.0015
488.741	0.0037
489.094	0.0028
489.448	0.0008
489.802	-0.0018
490.156	0.0008
490.509	0.002
490.863	0.0033
491.216	0.0029
491.57	0.0037
491.923	0.0029
492.277	0.0037
492.63	0.0031
492.983	0.0018
493.337	-0.0007
493.69	-0.0006
494.043	0.0017
494.396	0.0019
494.749	0.0037
495.102	0.0018
495.455	-0.0001
495.808	-0.0014
496.161	0.0001
496.514	0.0027
496.867	0.0025
497.22	0.0022
497.572	0.0015
497.925	0.0034
498.278	0.003
498.63	0.0031
498.983	0.0019
499.335	-0
499.688	-0.0011
500.04	-0.0025
500.393	-0.0001
500.745	0.0008
501.097	0.0018
501.449	0.004
501.802	0.0031
502.154	0.0015
502.506	-0.0006
502.858	0.0004
503.21	0.0016
503.562	0.0016
503.914	0.0029
504.266	0.0043
504.618	0.0058
504.969	0.0032
505.321	0.0024
505.673	0.0021
506.025	0.0035
506.376	0.0043
506.728	0.0016
507.079	0.0017
507.431	0.0004
507.782	0.0013
508.134	0.0001
508.485	0.0014
508.836	0.0004
509.188	0.0039
509.539	0.0001
509.89	0.0009
510.241	-0.0041
510.592	-0.0017
510.943	-0.0013
511.294	-0.0006
511.645	-0.0004
511.996	0.0009
512.347	0.0018
512.698	0
513.049	-0.0021
513.399	-0.002
513.75	0.0008
514.101	0.003
514.451	0.0024
514.802	-0.0008
515.152	-0.0023
515.503	0.0017
515.853	-0.0003
516.203	-0.0004
516.554	-0.0017
516.904	0.0003
517.254	0.0003
517.604	-0.0027
517.955	-0.001
518.305	-0.0004
518.655	0.0022
519.005	0.0008
519.355	0.0004
519.705	-0.0011
520.055	-0.0025
520.404	-0.0033
520.754	-0.0047
521.104	-0.0027
521.454	-0.0019
521.803	0.0013
522.153	0.0013
522.502	0.0002
522.852	-0.0005
523.201	-0.0018
523.551	-0.0024
523.9	0.0002
524.249	0.0017
524.599	0.0034
524.948	0.0005
525.297	0.0011
525.646	0.0015
525.995	0.0019
526.344	0.0014
526.694	0.0013
527.042	0.0003
527.391	-0.0002
527.74	-0.0013
528.089	-0.0018
528.438	0.0001
528.787	-0.0013
529.135	-0.0012
529.484	-0.0012
529.833	0.0015
530.181	0.0027
530.53	0.0028
530.878	0.0005
531.227	0.0011
531.575	-0.0032
531.923	0.0015
532.271	0.0017
532.62	0.005
532.968	0.0004
533.316	-0.0035
533.664	-0.0049
534.012	-0.0033
534.36	-0.0022
534.708	-0.0026
535.056	-0.0015
535.404	-0.0006
535.752	-0.0002
536.1	-0.0029
536.447	-0.0053
536.795	-0.0035
537.143	-0.003
537.49	-0.0012
537.838	-0.0043
538.185	-0.0009
538.533	-0.0004
538.88	0.0018
539.228	-0.0024
539.575	0.0017
539.922	0.005
540.269	0.0038
540.617	0.0008
540.964	-0.0017
541.311	-0.0008
541.658	-0.0029
542.005	-0.0032
542.352	-0.0017
542.699	-0.0002
543.045	0.0001
543.392	-0.0016
543.739	-0.0001
544.086	-0.0038
544.432	-0.0015
544.779	-0.0029
545.126	0.0008
545.472	-0.0003
545.819	-0.0012
546.165	-0.0031
546.512	-0.0054
546.858	-0.0041
547.204	-0.0044
547.55	-0.0025
547.897	-0.0044
548.243	-0.0037
548.589	-0.0086
548.935	-0.0099
549.281	-0.0091
549.627	-0.0034
549.973	-0.0018
550.319	-0.0008
550.665	-0.0027
551.01	-0.0036
551.356	-0.0037
551.702	-0.0042
552.048	-0.0031
552.393	-0.0025
552.739	0.001
553.084	-0.0005
553.43	-0.001
553.775	-0.0038
554.12	-0.0019
554.466	-0.0045
554.811	-0.0006
555.156	-0.0009
555.502	-0.0023
555.847	-0.0045
556.192	-0.0068
556.537	-0.0047
556.882	-0.0067
557.227	-0.0055
557.572	-0.0059
557.917	-0.0058
558.261	-0.0054
558.606	-0.003
558.951	-0.0047
559.295	-0.0073
559.64	-0.0097
559.985	-0.0025
560.329	0.0023
560.674	0.0012
561.018	-0.0012
561.363	-0.0017
561.707	0.0011
562.051	0.0006
562.395	-0.0004
562.74	-0.0005
563.084	-0.0042
563.428	-0.0066
563.772	-0.0064
564.116	-0.004
564.46	-0.0022
564.804	-0.0035
565.148	-0.002
565.492	-0.005
565.835	-0.0067
566.179	-0.008
566.523	-0.0058
566.866	-0.0014
567.21	-0.0009
567.554	-0.0007
567.897	-0.003
568.24	0.003
568.584	0.0046
568.927	0.0018
569.271	-0.0081
569.614	-0.008
569.957	-0.0042
570.3	-0.0042
570.643	-0.0062
570.986	-0.0084
571.329	-0.0045
571.672	-0.0052
572.015	-0.0038
572.358	-0.0049
572.701	-0.0023
573.044	-0.0037
573.387	-0.0016
573.729	-0.0011
574.072	-0.0021
574.414	-0.0024
574.757	-0.0069
575.099	-0.0047
575.442	-0.0051
575.784	-0.004
576.127	-0.0049
576.469	-0.0066
576.811	-0.0047
577.153	-0.005
577.496	-0.004
577.838	-0.0048
578.18	-0.006
578.522	-0.0046
578.864	-0.005
579.206	-0.0035
579.548	-0.0047
579.889	-0.0022
580.231	0.0004
580.573	-0.0005
580.915	-0.0017
581.256	-0.004
581.598	-0.006
581.939	-0.0053
582.281	-0.0071
582.622	-0.0048
582.964	-0.0066
583.305	-0.003
583.646	-0.0017
583.988	-0.0021
584.329	-0.0047
584.67	-0.005
585.011	-0.0049
585.352	-0.0048
585.693	-0.007
586.034	-0.0052
586.375	-0.0034
586.716	-0.003
587.057	-0.0062
587.398	-0.004
587.738	-0.0064
588.079	-0.0054
588.42	-0.0076
588.76	-0.0056
589.101	-0.0042
589.441	-0.0018
589.782	-0.0008
590.122	-0.0022
590.463	-0.0036
590.803	-0.0031
591.143	-0.0052
591.483	-0.0059
591.823	-0.0077
592.164	-0.0048
592.504	-0.0044
592.844	-0.0047
593.184	-0.006
593.523	-0.0075
593.863	-0.0034
594.203	-0.0027
594.543	-0.0024
594.883	-0.004
595.222	-0.0018
595.562	-0.0022
595.901	-0.0051
596.241	-0.0061
596.58	-0.0063
596.92	-0.0053
597.259	-0.0054
597.599	-0.0035
597.938	-0.0026
598.277	-0.0031
598.616	-0.0048
598.955	-0.0054
599.295	-0.0077
599.634	-0.0047
599.973	-0.0061
600.312	-0.0043
600.65	-0.005
600.989	0.0007
601.328	0.0024
601.667	0.0013
602.005	-0.0022
602.344	-0.0036
602.683	-0.0052
603.021	-0.0065
603.36	-0.0076
603.698	-0.0061
604.037	-0.0053
604.375	-0.0036
604.713	-0.0039
605.052	-0.0012
605.39	-0.0025
605.728	-0.0005
606.066	-0.0007
606.404	-0.0016
606.742	-0.0042
607.08	-0.0078
607.418	-0.0079
607.756	-0.0078
608.094	-0.0052
608.431	-0.0021
608.769	-0.0039
609.107	-0.0019
609.444	-0.0055
609.782	-0.0002
610.12	-0.0013
610.457	-0.0019
610.794	-0.005
611.132	-0.0057
611.469	-0.0055
611.806	-0.0061
612.144	-0.0054
612.481	-0.0048
612.818	-0.0057
613.155	-0.0091
613.492	-0.0085
613.829	-0.0065
614.166	-0.007
614.503	-0.0066
614.84	-0.0066
615.176	-0.0034
615.513	-0.0027
615.85	-0.0019
616.187	-0.0007
616.523	-0.0028
616.86	-0.004
617.196	-0.0068
617.533	-0.0043
617.869	-0.0057
618.205	-0.006
618.542	-0.013
618.878	-0.0128
619.214	-0.0069
619.55	-0.0023
619.886	-0.0038
620.222	-0.0044
620.558	-0.0026
620.894	-0.0006
621.23	-0.0064
621.566	-0.0077
621.902	-0.0104
622.238	-0.0084
622.573	-0.0088
622.909	-0.0074
623.244	-0.0079
623.58	-0.0092
623.916	-0.0073
624.251	-0.0048
624.586	-0.0002
624.922	-0.0042
625.257	-0.0088
625.592	-0.012
625.927	-0.0103
626.263	-0.0076
626.598	-0.0075
626.933	-0.007
627.268	-0.005
627.603	-0.0038
627.938	-0.0003
628.272	-0.0042
628.607	-0.0019
628.942	-0.0029
629.277	-0.001
629.611	0.001
629.946	0.0007
630.281	0.003
630.615	0.0009
630.949	0.0016
631.284	0.0006
631.618	-0.0001
631.953	-0.0046
632.287	-0.0075
632.621	-0.0088
632.955	-0.0059
633.289	-0.0029
633.623	-0.004
633.957	-0.0042
634.291	-0.0035
634.625	-0.0053
634.959	-0.0087
635.293	-0.0073
635.627	-0.0076
635.96	-0.0005
636.294	-0.0028
636.627	-0.0003
636.961	-0.0051
637.294	-0.0046
637.628	-0.005
637.961	-0.0079
638.295	-0.0011
638.628	0.0002
638.961	0.0027
639.294	-0.0059
639.628	-0.0064
639.961	-0.0057
640.294	-0.0049
640.627	-0.0058
640.96	-0.0056
641.293	-0.0085
641.625	-0.0084
641.958	-0.0076
642.291	-0.0039
642.624	-0.0032
642.956	-0.0035
643.289	-0.0025
643.621	-0.0008
643.954	-0.0007
644.286	-0.0026
644.619	-0.0043
644.951	-0.0092
645.283	-0.006
645.616	-0.0094
645.948	-0.0069
646.28	-0.0071
646.612	-0.0064
646.944	-0.0054
647.276	-0.0061
647.608	-0.0056
647.94	-0.0068
648.272	-0.0033
648.603	0.0024
648.935	-0.0007
649.267	-0.0062
649.598	-0.014
649.93	-0.0118
650.261	-0.0099
650.593	-0.0064
650.924	-0.0044
651.256	-0.004
651.587	-0.0015
651.918	0.0012
652.25	0.0006
652.581	-0.0034
652.912	-0.007
653.243	-0.0095
653.574	-0.0049
653.905	-0.0046
654.236	-0.0035
654.567	-0.0025
654.897	-0.0043
655.228	0.001
655.559	0.0029
655.89	0.0009
656.22	-0.0083
656.551	-0.0094
656.881	0.0015
657.212	0.0094
657.542	0.0076
657.872	0.0045
658.203	0.0059
658.533	0.002
658.863	-0.0041
659.193	-0.0063
659.523	-0.0106
659.853	-0.0097
660.183	-0.0083
660.513	-0.01
660.843	-0.0082
661.173	-0.0102
661.503	-0.0079
661.833	-0.0095
662.162	-0.0091
662.492	-0.0107
662.822	-0.0108
663.151	-0.0113
663.481	-0.0115
663.81	-0.0058
664.139	-0.0055
664.469	-0.002
664.798	0.0014
665.127	0.0017
665.456	0.0025
665.785	-0.0049
666.114	0.0006
666.443	0.0005
666.772	0.0102
667.101	0.007
667.43	0.0034
667.759	-0.0113
668.088	-0.013
668.416	-0.0125
668.745	-0.0056
669.074	-0.004
669.402	-0.0011
669.731	0.0007
670.059	0.0017
670.388	0.0016
670.716	-0.0001
671.044	-0.0015
671.372	-0.0013
671.701	-0.0053
672.029	-0.0103
672.357	-0.0124
672.685	-0.0051
673.013	-0.0014
673.341	-0.0002
673.669	-0.0033
673.996	0.0001
674.324	0.0021
674.652	-0.0005
674.98	-0.0041
675.307	-0.006
675.635	-0.0073
675.962	-0.008
676.29	-0.0124
676.617	-0.0087
676.945	-0.0073
677.272	-0.0079
677.599	-0.0099
677.926	-0.013
678.253	-0.0131
678.581	-0.009
678.908	-0.006
679.235	-0.0063
679.561	-0.0105
679.888	-0.0077
680.215	-0.006
680.542	-0.0021
680.869	-0.0052
681.195	-0.0046
681.522	-0.005
681.849	-0.0009
682.175	-0.0011
682.502	-0.007
682.828	-0.0141
683.154	-0.0147
683.481	-0.0067
683.807	-0.0038
684.133	-0.0032
684.459	-0.0039
684.785	-0.0047
685.111	-0.0062
685.437	-0.0113
685.763	-0.0115
686.089	-0.008
686.415	-0.0077
686.741	-0.0083
687.067	-0.0072
687.392	-0.0064
687.718	-0.004
688.043	-0.0091
688.369	-0.0068
688.694	-0.0084
689.02	-0.0042
689.345	-0.0071
689.67	-0.006
689.996	-0.0073
690.321	-0.0099
690.646	-0.0084
690.971	-0.0111
691.296	-0.0086
691.621	-0.0074
691.946	-0.0032
692.271	0.0002
692.596	-0.004
692.921	-0.0044
693.245	-0.0076
693.57	-0.0074
693.895	-0.0059
694.219	-0.0066
694.544	-0.0052
694.868	-0.0103
695.193	-0.011
695.517	-0.0133
695.841	-0.0082
696.166	-0.0042
696.49	-0.0007
696.814	0.0003
697.138	-0.003
697.462	-0.0037
697.786	-0.0104
698.11	-0.0057
698.434	-0.0048
698.758	-0.0026
699.081	-0.0039
699.405	-0.0086
699.729	-0.0018
700.052	-0.0043
700.376	-0.0002
700.7	0.002
701.023	0.0075
701.346	0.0059
701.67	-0.0019
701.993	-0.0037
702.316	-0.0033
702.639	-0.0012
702.963	0.0008
703.286	-0.0027
703.609	-0.0035
703.932	-0.01
704.255	-0.0043
704.578	-0.007
704.9	-0.0074
705.223	-0.0098
705.546	-0.0092
705.868	-0.0069
706.191	-0.0061
706.514	-0.0065
706.836	-0.0008
707.159	-0.0017
707.481	0.0016
707.803	-0.0043
708.126	-0.0058
708.448	-0.0078
708.77	-0.0092
709.092	-0.0075
709.414	-0.0016
709.736	-0.0025
710.058	-0.0006
710.38	-0.0039
710.702	-0.0041
711.024	-0.007
711.345	-0.0073
711.667	-0.0029
711.989	-0.0049
712.31	-0.0048
712.632	-0.01
712.953	-0.0071
713.275	-0.0043
713.596	-0.0065
713.917	-0.0048
714.239	-0.0081
714.56	0.0005
714.881	-0.0011
715.202	0.0023
715.523	-0.0032
715.844	-0.0027
716.165	-0.0078
716.486	-0.0088
716.807	-0.0096
717.128	-0.0054
717.448	-0.0063
717.769	-0.0034
718.09	-0.0081
718.41	-0.0021
718.731	-0.0036
719.051	-0.0063
719.372	-0.0127
719.692	-0.0155
720.012	-0.0136
720.332	-0.0115
720.653	-0.0129
720.973	-0.0102
721.293	-0.0092
721.613	-0.0067
721.933	-0.0052
722.253	-0.0057
722.573	-0.0046
722.892	-0.0039
723.212	-0.0056
723.532	-0.0078
723.851	-0.0078
724.171	-0.0019
724.491	-0.0031
724.81	-0.0027
725.129	-0.0072
725.449	-0.006
725.768	-0.0115
726.087	-0.0098
726.407	-0.009
726.726	-0.0074
727.045	-0.0015
727.364	-0.0046
727.683	-0.0004
728.002	-0.0037
728.321	-0.0005
728.64	-0.0057
728.958	-0.0111
729.277	-0.0082
729.596	-0.0029
729.914	-0.0018
730.233	-0.0036
730.551	-0.0051
730.87	-0.0015
731.188	-0.001
731.507	-0.0012
731.825	-0.0016
732.143	-0.0036
732.461	-0.0024
732.779	-0.0032
733.097	-0.0028
733.415	-0.0034
733.733	-0.0061
734.051	-0.0058
734.369	-0.0042
734.687	-0.003
735.005	-0.0042
735.322	-0.0117
735.64	-0.0126
735.957	-0.0146
736.275	-0.0092
736.592	-0.0077
736.91	-0.006
737.227	-0.0094
737.544	-0.0105
737.862	-0.0074
738.179	-0.0033
738.496	0.0006
738.813	-0.0006
739.13	-0.0019
739.447	-0.0044
739.764	-0.0092
740.081	-0.0124
740.398	-0.0131
740.714	-0.0062
741.031	-0.0053
741.348	-0.0063
741.664	-0.007
741.981	-0.0031
742.297	-0.0051
742.614	-0.0082
742.93	-0.0088
743.246	-0.0044
743.563	-0.0051
743.879	-0.0062
744.195	-0.008
744.511	-0.0053
744.827	-0.0029
745.143	-0.0044
745.459	-0.0024
745.775	-0.0053
746.091	-0.0073
746.406	-0.0082
746.722	-0.0064
747.038	-0.0032
747.353	-0.0019
747.669	-0.0047
747.984	-0.0033
748.3	-0.0051
748.615	-0.0073
748.93	-0.0077
749.246	-0.0095
749.561	-0.0089
749.876	-0.0055
750.191	0.001
750.506	0.0031
750.821	-0.0043
751.136	-0.0117
751.451	-0.0074
751.766	-0.0088
752.08	-0.012
752.395	-0.0186
752.71	-0.0137
753.024	-0.0116
753.339	-0.0075
753.653	-0.006
753.968	-0.0006
754.282	0.0019
754.596	0.0016
754.911	-0.0103
755.225	-0.0129
755.539	-0.0043
755.853	0.0099
756.167	0.0094
756.481	0.0002
756.795	-0.0043
757.109	-0.0056
757.423	-0.0141
757.736	-0.0165
758.05	-0.0172
758.364	-0.0086
758.677	-0.0058
758.991	-0.0099
759.304	-0.0133
759.618	-0.0156
759.931	-0.0082
760.244	-0.0052
760.558	-0.0065
760.871	-0.0107
761.184	-0.0125
761.497	-0.0082
761.81	-0.009
762.123	-0.0063
762.436	-0.0123
762.749	-0.0062
763.062	-0.0082
763.374	0.0001
763.687	-0.0053
764	-0.0065
764.312	-0.0074
764.625	-0.008
764.937	-0.0061
765.25	-0.0096
765.562	-0.0008
765.874	-0.0013
766.186	-0.0024
766.499	-0.0089
766.811	-0.0092
767.123	-0.012
767.435	-0.0115
767.747	-0.0122
768.059	-0.0082
768.37	-0.0079
768.682	-0.0093
768.994	-0.0103
769.306	-0.0067
769.617	-0.0005
769.929	-0.0041
770.24	-0.004
770.552	-0.0069
770.863	-0.0032
771.174	-0.0065
771.486	-0.0072
771.797	-0.0087
772.108	-0.0139
772.419	-0.0124
772.73	-0.0115
773.041	-0.0045
773.352	-0.0018
773.663	-0.0046
773.974	-0.0074
774.285	-0.0118
774.595	-0.0033
774.906	-0.0008
775.217	-0.0005
775.527	-0.0071
775.838	-0.0079
776.148	-0.0058
776.458	-0.0005
776.769	0.0015
777.079	-0.0031
777.389	-0.0073
777.699	-0.0029
778.009	0.0017
778.319	-0.0001
778.629	-0.0125
778.939	-0.0146
779.249	-0.0069
779.559	-0.0009
779.869	-0.0031
780.178	-0.0082
780.488	-0.0129
780.798	-0.0107
781.107	-0.0134
781.417	-0.0056
781.726	-0.0022
782.035	0.0007
782.345	-0.0012
782.654	-0.0062
782.963	-0.0074
783.272	-0.0086
783.581	-0.009
783.89	-0.0056
784.199	-0.0039
784.508	-0.0068
784.817	-0.0079
785.126	-0.0105
785.434	-0.0081
785.743	-0.006
786.052	-0.002
786.36	-0.0013
786.669	-0.0121
786.977	-0.0208
787.285	-0.015
787.594	-0.0055
787.902	-0.0012
788.21	-0.0066
788.518	-0.0071
788.826	-0.003
789.135	-0.0045
789.442	-0.0085
789.75	-0.0157
790.058	-0.0113
790.366	-0.0124
790.674	-0.0105
790.981	-0.0099
791.289	-0.0081
791.597	-0.0066
791.904	-0.0048
792.212	-0.0016
792.519	-0.0014
792.826	-0.0031
793.134	-0.008
793.441	-0.0059
793.748	-0.0078
794.055	-0.0016
794.362	0.0017
794.669	0.0016
794.976	-0.0033
795.283	-0.0144
795.59	-0.0125
795.897	-0.0127
796.203	-0.0053
796.51	-0.0029
796.817	-0.0042
797.123	-0.0067
797.43	-0.0087
797.736	-0.0035
798.042	-0.0042
798.349	-0.0026
798.655	-0.0027
798.961	-0.0017
799.267	-0.0011
799.573	-0.0047
799.879	-0.003
800.185	-0.006
800.491	-0.0065
800.797	0.0005
801.103	0.0032
801.408	0.0041
801.714	-0.0061
802.02	-0.0101
802.325	-0.0032
802.631	-0.0005
802.936	-0
803.242	-0.004
803.547	-0.0071
803.852	-0.0045
804.157	-0.0041
804.462	-0.0048
804.768	-0.0053
805.073	-0.0144
805.378	-0.0097
805.682	-0.0074
805.987	-0.0034
806.292	-0.0033
806.597	-0.0067
806.902	-0.0009
807.206	-0.0032
807.511	0.0011
807.815	0.002
808.12	0.0127
808.424	0.0129
808.728	0.0047
809.033	-0.0039
809.337	-0.0039
809.641	0.0033
809.945	-0.0036
810.249	-0.0062
810.553	-0.0124
810.857	-0.005
811.161	-0.0077
811.465	-0.0072
811.768	-0.0042
812.072	-0.003
812.376	-0.0012
812.679	0.0008
812.983	-0.0007
813.286	-0.0034
813.59	-0.0101
813.893	-0.0077
814.196	-0.001
814.499	-0.0044
814.803	-0.0107
815.106	-0.0191
815.409	-0.0183
815.712	-0.0113
816.015	-0.0023
816.318	0.0049
816.62	-0.0052
816.923	-0.007
817.226	-0.0069
817.528	-0.0036
817.831	-0.0041
818.133	-0.0051
818.436	0.0014
818.738	0.0002
819.041	0.0025
819.343	0.0051
819.645	-0.0051
819.947	-0.0119
820.249	-0.018
820.551	-0.0137
820.853	-0.0089
821.155	-0.0104
821.457	-0.009
821.759	-0.0159
822.061	-0.0167
822.362	-0.0177
822.664	-0.0062
822.966	-0.0004
823.267	0.0072
823.569	-0.0003
823.87	-0.0035
824.171	-0.0057
824.473	-0.0027
824.774	-0.0031
825.075	-0.0056
825.376	-0.0052
825.677	0.0007
825.978	-0.0056
826.279	-0.0063
826.58	-0.0034
826.881	0.0057
827.181	0.0048
827.482	-0.005
827.783	-0.0113
828.083	-0.016
828.384	-0.0094
828.684	-0.0085
828.985	-0.0048
829.285	-0.0113
829.585	-0.0158
829.885	-0.0177
830.185	-0.0021
830.486	0.0088
830.786	0.0056
831.086	-0.007
831.385	-0.0177
831.685	-0.0156
831.985	-0.0245
832.285	-0.0175
832.585	-0.0126
832.884	-0.0043
833.184	-0.0038
833.483	-0.0111
833.783	-0.0031
834.082	-0.0005
834.381	0.0007
834.681	-0.0022
834.98	-0.0132
835.279	-0.0063
835.578	-0.0105
835.877	-0.0059
836.176	-0.0002
836.475	-0.0091
836.774	-0.0082
837.072	-0.0134
837.371	-0.0061
837.67	-0.0056
837.968	-0.0057
838.267	0.0129
838.565	0.0198
838.864	0.0293
839.162	0.017
839.46	0.007
839.759	-0.0037
840.057	-0.0088
840.355	-0.0093
840.653	-0.0111
840.951	-0.0008
841.249	0.0151
841.547	0.0087
841.845	-0.0018
842.142	-0.0167
842.44	-0.0185
842.738	-0.0202
843.035	-0.0156
843.333	-0.0025
843.63	-0.002
843.928	0.0005
844.225	-0.0121
844.522	-0.0107
844.82	-0.023
845.117	-0.0081
845.414	-0.0022
845.711	0.0082
846.008	0.0003
846.305	-0.0077
846.602	-0.0143
846.898	-0.0103
847.195	-0.0072
847.492	-0.0008
847.788	0.0108
848.085	0.0007
848.382	0.0077
848.678	-0.0205
848.974	-0.0172
849.271	-0.0057
849.567	0.0055
849.863	0.0131
850.159	0.0027
850.455	0.0017
850.751	-0.0047
851.047	-0.0151
851.343	-0.0053
851.639	-0.0014
851.935	-0.0174
852.23	-0.0201
852.526	-0.0168
852.822	0.0103
853.117	0.0051
853.413	0.0113
853.708	0.0074
854.003	0.0126
854.299	0.0082
854.594	0.0018
854.889	0.0007
855.184	-0.0053
855.479	-0.0217
855.774	-0.0131
856.069	-0.0283
856.364	-0.0377
856.659	-0.0497
856.954	-0.024
857.248	-0.0051
857.543	0.0058
857.837	-0.0235
858.132	-0.0135
858.426	-0.0244
858.721	-0.0118
859.015	-0.0151
859.309	0.0041
859.604	0.0129
859.898	0.0343
860.192	0.0293
860.486	0.0395
860.78	0.0325
861.074	0.0347
861.367	0.0193
861.661	0.0077
861.955	-0.0058
862.248	-0.0112
862.542	-0.0017
862.836	0.0196
863.129	0.0142
863.422	-0.0012
863.716	-0.0212
864.009	0.0106
864.302	0.0039
864.595	0.0222
864.889	0.009
865.182	0.0037
865.475	-0.0155
865.767	-0.0175
866.06	0.0039
866.353	0.0211
866.646	0.0287
866.938	0.0218
867.231	0.0299
867.524	0.0281
867.816	0.005
868.109	-0.0303
868.401	-0.0478
868.693	-0.0292
868.985	0.0299
869.278	0.0618
869.57	0.0637
869.862	0.0164
870.154	0.0217
870.446	0.0303
870.738	0.0244
871.029	0.0087
871.321	0.0233
871.613	0.0448
871.904	0.0327
872.196	-0.0075
872.487	-0.0359
872.779	-0.0206
873.07	0.002
873.362	0.0121
873.653	-0.0023
873.944	-0.009
874.235	-0.0068
874.526	0.0013
874.817	0.0192
875.108	0.0168
875.399	0.0123
875.69	0.0046
875.981	-0.0055
876.271	0.012
876.562	-0.0228
876.853	0.0037
877.143	-0.0219
877.434	-0.0067
877.724	-0.0616
878.014	-0.0435
878.305	-0.0351
878.595	-0.0048
878.885	-0.0395
879.175	-0.0368
879.465	-0.0104
879.755	0.016
880.045	0.0229
880.335	0.009
880.624	0.0078
880.914	0.0078
