Data from 42SS01BI_071517_1a_Absorbance_19-49-32-795.txt Node	
	
Date: Tue Jul 18 19:49:32 MDT 2017	
User: Tank Lab	
Spectrometer: FLMS01220	
Trigger mode: 0	
Integration Time (sec): 1.000000E-1	
Scans to average: 10	
Electric dark correction enabled: true	
Nonlinearity correction enabled: false	
Boxcar width: 1	
XAxis mode: Wavelengths	
Number of Pixels in Spectrum: 2048	
>>>>>Begin Spectral Data<<<<<	
179.47	-0.022
179.856	-0.022
180.241	0.5741
180.626	0
181.011	0
181.396	0.6094
181.781	0.7198
182.166	0
182.551	0.0137
182.936	0.3235
183.321	0
183.706	0.2676
184.091	0.0257
184.476	0.2543
184.86	0.5022
185.245	-0.3658
185.63	-0.0688
186.015	0.8134
186.399	-0.6942
186.784	0
187.169	0.3923
187.553	0.3491
187.938	0.1404
188.322	0.1211
188.707	0.0666
189.091	0.0619
189.475	0.0703
189.86	0.0817
190.244	0.1055
190.629	0.1257
191.013	0.1471
191.397	0.1634
191.781	0.1751
192.165	0.1941
192.55	0.2147
192.934	0.2431
193.318	0.2523
193.702	0.2548
194.086	0.2513
194.47	0.2495
194.854	0.252
195.238	0.2464
195.622	0.2528
196.006	0.2355
196.389	0.2289
196.773	0.2177
197.157	0.2217
197.541	0.2221
197.924	0.2173
198.308	0.2091
198.692	0.2066
199.075	0.207
199.459	0.2065
199.843	0.1979
200.226	0.1893
200.61	0.1838
200.993	0.1806
201.376	0.1798
201.76	0.1755
202.143	0.1739
202.527	0.1724
202.91	0.1743
203.293	0.1708
203.676	0.1668
204.059	0.1639
204.443	0.1656
204.826	0.1662
205.209	0.1586
205.592	0.1559
205.975	0.1521
206.358	0.1548
206.741	0.1557
207.124	0.157
207.507	0.1584
207.89	0.1552
208.273	0.1554
208.655	0.1512
209.038	0.1482
209.421	0.1443
209.804	0.1462
210.186	0.1464
210.569	0.1459
210.951	0.144
211.334	0.1434
211.717	0.1435
212.099	0.1418
212.482	0.1371
212.864	0.1349
213.246	0.133
213.629	0.1347
214.011	0.1342
214.393	0.133
214.776	0.1309
215.158	0.129
215.54	0.1259
215.922	0.1239
216.305	0.1218
216.687	0.1217
217.069	0.1219
217.451	0.121
217.833	0.1192
218.215	0.1159
218.597	0.1124
218.979	0.1105
219.361	0.111
219.742	0.1084
220.124	0.1075
220.506	0.1038
220.888	0.1035
221.27	0.1009
221.651	0.0995
222.033	0.097
222.415	0.0948
222.796	0.0922
223.178	0.0892
223.559	0.0862
223.941	0.0831
224.322	0.0814
224.704	0.0821
225.085	0.0823
225.466	0.0814
225.848	0.0772
226.229	0.0747
226.61	0.0737
226.992	0.0746
227.373	0.0741
227.754	0.0718
228.135	0.0692
228.516	0.0689
228.897	0.0691
229.278	0.0686
229.659	0.0661
230.04	0.063
230.421	0.0601
230.802	0.0579
231.183	0.0583
231.564	0.0596
231.944	0.059
232.325	0.0569
232.706	0.0537
233.087	0.0527
233.467	0.0524
233.848	0.0515
234.229	0.0503
234.609	0.0491
234.99	0.049
235.37	0.0501
235.751	0.0503
236.131	0.051
236.511	0.0485
236.892	0.0484
237.272	0.0469
237.652	0.0466
238.033	0.044
238.413	0.0435
238.793	0.0432
239.173	0.0442
239.553	0.044
239.933	0.0439
240.313	0.0436
240.694	0.0424
241.074	0.0411
241.453	0.0411
241.833	0.0409
242.213	0.0418
242.593	0.0406
242.973	0.0418
243.353	0.0421
243.732	0.0418
244.112	0.0413
244.492	0.0403
244.872	0.0402
245.251	0.0393
245.631	0.0392
246.01	0.0382
246.39	0.0369
246.769	0.037
247.149	0.0381
247.528	0.0389
247.908	0.0383
248.287	0.0388
248.666	0.0395
249.045	0.0388
249.425	0.038
249.804	0.0368
250.183	0.0392
250.562	0.0383
250.941	0.0383
251.32	0.0361
251.699	0.0374
252.078	0.0373
252.457	0.0382
252.836	0.0378
253.215	0.0372
253.594	0.0376
253.973	0.0371
254.352	0.0384
254.731	0.0382
255.109	0.0377
255.488	0.0359
255.867	0.0346
256.245	0.0355
256.624	0.0354
257.002	0.0362
257.381	0.0344
257.759	0.0353
258.138	0.0348
258.516	0.0362
258.895	0.0358
259.273	0.0353
259.651	0.0345
260.03	0.0351
260.408	0.0354
260.786	0.0354
261.164	0.0354
261.542	0.0349
261.921	0.0351
262.299	0.0342
262.677	0.0337
263.055	0.0336
263.433	0.034
263.811	0.0349
264.188	0.0323
264.566	0.0316
264.944	0.0306
265.322	0.0333
265.7	0.0337
266.077	0.0338
266.455	0.0316
266.833	0.0315
267.21	0.0312
267.588	0.0316
267.966	0.0316
268.343	0.0319
268.721	0.0337
269.098	0.0329
269.475	0.0325
269.853	0.0314
270.23	0.0315
270.607	0.0319
270.985	0.0319
271.362	0.0307
271.739	0.0302
272.116	0.0292
272.494	0.0302
272.871	0.0305
273.248	0.0315
273.625	0.0322
274.002	0.0303
274.379	0.0309
274.756	0.032
275.132	0.033
275.509	0.0327
275.886	0.0322
276.263	0.0329
276.64	0.0314
277.016	0.0294
277.393	0.0283
277.77	0.0267
278.146	0.0269
278.523	0.027
278.899	0.0279
279.276	0.0282
279.652	0.0278
280.029	0.0285
280.405	0.0287
280.782	0.0291
281.158	0.0283
281.534	0.0285
281.91	0.0284
282.287	0.0285
282.663	0.0296
283.039	0.0315
283.415	0.0321
283.791	0.0299
284.167	0.0287
284.543	0.0282
284.919	0.0276
285.295	0.0266
285.671	0.0259
286.047	0.0277
286.423	0.0276
286.799	0.0278
287.174	0.0274
287.55	0.0259
287.926	0.0269
288.301	0.0259
288.677	0.0274
289.053	0.0262
289.428	0.0273
289.804	0.0269
290.179	0.0268
290.555	0.0263
290.93	0.0255
291.305	0.0248
291.681	0.0248
292.056	0.0268
292.431	0.0273
292.806	0.028
293.182	0.0266
293.557	0.0269
293.932	0.0251
294.307	0.0243
294.682	0.0243
295.057	0.0243
295.432	0.0242
295.807	0.0239
296.182	0.0234
296.557	0.0247
296.932	0.0247
297.306	0.0248
297.681	0.0236
298.056	0.0241
298.43	0.0248
298.805	0.0246
299.18	0.0237
299.554	0.0223
299.929	0.0234
300.303	0.024
300.678	0.0255
301.052	0.0264
301.427	0.0267
301.801	0.0271
302.175	0.0257
302.55	0.0235
302.924	0.0222
303.298	0.0213
303.672	0.0236
304.046	0.024
304.421	0.0238
304.795	0.0242
305.169	0.0237
305.543	0.0242
305.917	0.0213
306.291	0.0214
306.664	0.0221
307.038	0.0245
307.412	0.0242
307.786	0.0244
308.16	0.0233
308.533	0.0226
308.907	0.0225
309.281	0.0219
309.654	0.0235
310.028	0.0218
310.401	0.0231
310.775	0.0227
311.148	0.024
311.522	0.0224
311.895	0.0217
312.268	0.021
312.642	0.0223
313.015	0.0223
313.388	0.0216
313.761	0.0214
314.135	0.0192
314.508	0.0197
314.881	0.0195
315.254	0.0224
315.627	0.0235
316	0.023
316.373	0.0229
316.746	0.0211
317.118	0.0217
317.491	0.0204
317.864	0.0198
318.237	0.0189
318.61	0.0197
318.982	0.0211
319.355	0.0215
319.727	0.0206
320.1	0.0203
320.473	0.0212
320.845	0.0218
321.218	0.0232
321.59	0.0229
321.962	0.0212
322.335	0.0197
322.707	0.0174
323.079	0.0206
323.452	0.0195
323.824	0.0221
324.196	0.0209
324.568	0.022
324.94	0.0217
325.312	0.0223
325.684	0.0232
326.056	0.022
326.428	0.0204
326.8	0.0183
327.172	0.0193
327.544	0.018
327.915	0.019
328.287	0.0176
328.659	0.0189
329.031	0.019
329.402	0.0194
329.774	0.0183
330.145	0.0188
330.517	0.0185
330.888	0.0178
331.26	0.0143
331.631	0.0146
332.003	0.0156
332.374	0.019
332.745	0.0186
333.117	0.0183
333.488	0.0189
333.859	0.0186
334.23	0.0188
334.601	0.0175
334.972	0.0182
335.343	0.019
335.714	0.0191
336.085	0.0196
336.456	0.0195
336.827	0.018
337.198	0.0169
337.569	0.0161
337.94	0.0166
338.31	0.0166
338.681	0.0166
339.052	0.0162
339.422	0.015
339.793	0.0155
340.164	0.0166
340.534	0.0159
340.905	0.0165
341.275	0.0158
341.645	0.0188
342.016	0.0178
342.386	0.018
342.756	0.0151
343.127	0.0139
343.497	0.0129
343.867	0.0139
344.237	0.0139
344.607	0.0138
344.977	0.0136
345.347	0.0148
345.717	0.0131
346.087	0.0141
346.457	0.0135
346.827	0.0144
347.197	0.0139
347.567	0.0129
347.936	0.0168
348.306	0.018
348.676	0.0203
349.046	0.0179
349.415	0.0169
349.785	0.0159
350.154	0.0191
350.524	0.0195
350.893	0.0185
351.263	0.0144
351.632	0.0132
352.001	0.0139
352.371	0.0137
352.74	0.0142
353.109	0.0129
353.478	0.0153
353.847	0.015
354.217	0.0157
354.586	0.014
354.955	0.0165
355.324	0.0175
355.693	0.0174
356.062	0.0148
356.43	0.0144
356.799	0.0156
357.168	0.0162
357.537	0.0163
357.906	0.0137
358.274	0.0144
358.643	0.0131
359.011	0.0152
359.38	0.014
359.749	0.0136
360.117	0.0123
360.486	0.0117
360.854	0.0142
361.222	0.0135
361.591	0.0131
361.959	0.0116
362.327	0.0128
362.695	0.0131
363.064	0.0117
363.432	0.0104
363.8	0.0101
364.168	0.0118
364.536	0.0121
364.904	0.0127
365.272	0.0118
365.64	0.0119
366.008	0.0127
366.376	0.0132
366.743	0.014
367.111	0.0133
367.479	0.0135
367.847	0.0124
368.214	0.0111
368.582	0.0102
368.949	0.0105
369.317	0.0112
369.684	0.0126
370.052	0.0148
370.419	0.0174
370.787	0.0166
371.154	0.0139
371.521	0.0121
371.889	0.0111
372.256	0.0117
372.623	0.0084
372.99	0.0074
373.357	0.0075
373.724	0.0101
374.091	0.009
374.458	0.0072
374.825	0.006
375.192	0.0094
375.559	0.0097
375.926	0.0102
376.293	0.0095
376.659	0.0087
377.026	0.0089
377.393	0.0086
377.759	0.009
378.126	0.0114
378.492	0.0132
378.859	0.0141
379.225	0.0122
379.592	0.0097
379.958	0.0104
380.325	0.0122
380.691	0.0112
381.057	0.012
381.423	0.0099
381.79	0.013
382.156	0.0128
382.522	0.0142
382.888	0.0116
383.254	0.0097
383.62	0.0091
383.986	0.0097
384.352	0.0104
384.718	0.0099
385.084	0.014
385.449	0.0128
385.815	0.0113
386.181	0.0085
386.547	0.0096
386.912	0.0074
387.278	0.0057
387.643	0.0068
388.009	0.0098
388.374	0.0112
388.74	0.0101
389.105	0.012
389.471	0.009
389.836	0.0096
390.201	0.0088
390.566	0.0119
390.932	0.0122
391.297	0.0115
391.662	0.0103
392.027	0.0086
392.392	0.0069
392.757	0.0064
393.122	0.0065
393.487	0.0071
393.852	0.0078
394.217	0.0073
394.582	0.0119
394.946	0.0151
395.311	0.0161
395.676	0.0143
396.04	0.0071
396.405	0.0061
396.77	0.0045
397.134	0.0076
397.499	0.0087
397.863	0.0065
398.227	0.007
398.592	0.0074
398.956	0.0095
399.32	0.0091
399.685	0.0068
400.049	0.0073
400.413	0.0109
400.777	0.012
401.141	0.0134
401.505	0.0108
401.869	0.0089
402.233	0.0051
402.597	0.0049
402.961	0.0062
403.325	0.0083
403.689	0.0086
404.053	0.0101
404.416	0.0078
404.78	0.0075
405.144	0.007
405.507	0.008
405.871	0.0073
406.234	0.007
406.598	0.0063
406.961	0.0059
407.325	0.0084
407.688	0.0099
408.051	0.0105
408.415	0.0077
408.778	0.006
409.141	0.0057
409.504	0.0072
409.867	0.0078
410.23	0.0079
410.593	0.005
410.956	0.0065
411.319	0.0087
411.682	0.0108
412.045	0.0111
412.408	0.0094
412.771	0.0088
413.134	0.0081
413.496	0.0074
413.859	0.0073
414.222	0.0066
414.584	0.0068
414.947	0.0087
415.309	0.009
415.672	0.0095
416.034	0.0085
416.396	0.0095
416.759	0.0093
417.121	0.0073
417.483	0.0059
417.846	0.0065
418.208	0.0082
418.57	0.01
418.932	0.0083
419.294	0.0101
419.656	0.0077
420.018	0.0092
420.38	0.006
420.742	0.0074
421.104	0.0075
421.466	0.0059
421.827	0.0057
422.189	0.0044
422.551	0.0061
422.912	0.0065
423.274	0.0089
423.636	0.01
423.997	0.0104
424.359	0.0107
424.72	0.0125
425.081	0.0097
425.443	0.006
425.804	0.0043
426.165	0.0039
426.527	0.0038
426.888	0.004
427.249	0.0064
427.61	0.0089
427.971	0.0049
428.332	0.0046
428.693	0.0013
429.054	0.0039
429.415	0.004
429.776	0.0066
430.137	0.0077
430.498	0.0075
430.858	0.0089
431.219	0.0126
431.58	0.01
431.94	0.01
432.301	0.0074
432.661	0.008
433.022	0.006
433.382	0.0063
433.743	0.0052
434.103	0.0043
434.463	-0.001
434.824	0.0016
435.184	0.0032
435.544	0.0049
435.904	0.0033
436.264	0.0027
436.624	0.004
436.985	0.0049
437.345	0.0054
437.704	0.005
438.064	0.0057
438.424	0.0052
438.784	0.0075
439.144	0.0127
439.504	0.0091
439.863	0.0056
440.223	-0.0013
440.583	0.0018
440.942	0.0039
441.302	0.006
441.661	0.0045
442.021	0.0023
442.38	0.0016
442.739	0.0031
443.099	0.0044
443.458	0.005
443.817	0.0064
444.176	0.0067
444.536	0.0066
444.895	0.0073
445.254	0.0095
445.613	0.0098
445.972	0.0067
446.331	0.0031
446.69	0.0016
447.049	0.0032
447.407	0.0035
447.766	0.0038
448.125	0.0047
448.484	0.0073
448.842	0.01
449.201	0.0084
449.559	0.0057
449.918	0.0033
450.276	0.0055
450.635	0.0076
450.993	0.0052
451.352	0.0038
451.71	0.0027
452.068	0.0048
452.426	0.0052
452.785	0.0045
453.143	0.0044
453.501	0.0026
453.859	0.0033
454.217	0.0059
454.575	0.0074
454.933	0.0075
455.291	0.0066
455.649	0.0036
456.006	0.0021
456.364	0.0011
456.722	0.0017
457.079	0.0054
457.437	0.0065
457.795	0.0087
458.152	0.006
458.51	0.0041
458.867	0.0043
459.225	0.006
459.582	0.0084
459.939	0.0072
460.297	0.0057
460.654	0.0014
461.011	0.0015
461.368	0.0036
461.725	0.0064
462.082	0.0053
462.44	0.0045
462.797	0.0028
463.153	0.0046
463.51	0.0031
463.867	0.0054
464.224	0.0022
464.581	0.0015
464.938	0.0001
465.294	0.0039
465.651	0.0028
466.008	0.0036
466.364	0.0023
466.721	0.0035
467.077	0.0039
467.434	0.0043
467.79	0.0064
468.146	0.006
468.503	0.0105
468.859	0.0047
469.215	0.0007
469.571	-0.0056
469.927	-0.0025
470.284	-0.0014
470.64	0.0027
470.996	0.0053
471.352	0.0091
471.707	0.0068
472.063	0.006
472.419	0.004
472.775	0.0012
473.131	0.0056
473.486	0.0065
473.842	0.0099
474.198	0.0068
474.553	0.0085
474.909	0.0082
475.264	0.0089
475.62	0.0073
475.975	0.0078
476.331	0.0067
476.686	0.0078
477.041	0.0066
477.396	0.0089
477.752	0.0107
478.107	0.0107
478.462	0.0056
478.817	0.0034
479.172	0.007
479.527	0.0091
479.882	0.0071
480.237	0.003
480.591	0.0024
480.946	0.0015
481.301	0.0022
481.656	-0.001
482.01	0.0005
482.365	-0.0025
482.72	0.0027
483.074	0.004
483.429	0.0072
483.783	0.0041
484.137	0.0065
484.492	0.0058
484.846	0.0073
485.2	0.0009
485.555	-0.0017
485.909	-0.0016
486.263	0.0023
486.617	0.005
486.971	0.0065
487.325	0.0082
487.679	0.0103
488.033	0.0056
488.387	0.0117
488.741	0.0112
489.094	0.0078
489.448	0.0001
489.802	0.0014
490.156	0.0061
490.509	0.0013
490.863	-0.0034
491.216	-0.0007
491.57	0.0037
491.923	0.0055
492.277	0.0036
492.63	0.0018
492.983	0.0008
493.337	0.0006
493.69	0.0035
494.043	0.006
494.396	0.0046
494.749	0.0029
495.102	0.0007
495.455	0.0012
495.808	0.0007
496.161	0.0019
496.514	0.0033
496.867	0.006
497.22	0.0066
497.572	0.004
497.925	0.0027
498.278	-0.0001
498.63	0.0051
498.983	0.0055
499.335	0.0071
499.688	0.0008
500.04	0.0006
500.393	-0.0008
500.745	0.0031
501.097	0.0041
501.449	0.003
501.802	0.0016
502.154	0.0014
502.506	0.0028
502.858	0.0044
503.21	0.0017
503.562	0.0032
503.914	0.0072
504.266	0.0096
504.618	0.0075
504.969	0.0065
505.321	0.0036
505.673	0.0046
506.025	0.0035
506.376	0.0057
506.728	0.0045
507.079	0.0022
507.431	0.0015
507.782	0.003
508.134	0.0043
508.485	0.0016
508.836	0.0004
509.188	-0.0009
509.539	0.0017
509.89	-0.0005
510.241	-0.0034
510.592	0.0013
510.943	0
511.294	0.0011
511.645	-0.0045
511.996	-0.0009
512.347	0.0027
512.698	0.0046
513.049	0.0038
513.399	0.001
513.75	-0.0004
514.101	0.0019
514.451	0.0038
514.802	0.0064
515.152	0.0061
515.503	0.007
515.853	0.0042
516.203	0.0001
516.554	-0.0022
516.904	-0.0019
517.254	0.0022
517.604	0.0016
517.955	-0.0012
518.305	-0.0006
518.655	0.0009
519.005	0.0052
519.355	0.0064
519.705	0.0028
520.055	0.0029
520.404	0.0014
520.754	0.0072
521.104	0.0077
521.454	0.0075
521.803	0.0075
522.153	0.0048
522.502	0.0006
522.852	-0.0027
523.201	-0.002
523.551	0.0009
523.9	0.0039
524.249	0.0074
524.599	0.0039
524.948	0.0022
525.297	-0.0003
525.646	0.0007
525.995	-0.0007
526.344	0.0001
526.694	0.0033
527.042	0.003
527.391	0
527.74	0.0014
528.089	0.0019
528.438	0.0052
528.787	0.0031
529.135	0.0044
529.484	0.0058
529.833	0.0061
530.181	0.0054
530.53	0.0024
530.878	0.0013
531.227	0.0043
531.575	0.0074
531.923	0.005
532.271	0.0011
532.62	-0.0004
532.968	0.0003
533.316	0.0018
533.664	0.002
534.012	0.0058
534.36	0.0058
534.708	0.0031
535.056	0.0006
535.404	-0.003
535.752	-0.0006
536.1	-0.0001
536.447	0.0044
536.795	0.0051
537.143	0.0062
537.49	0.0028
537.838	-0.0006
538.185	-0.0011
538.533	0.0004
538.88	0.0017
539.228	-0.0017
539.575	-0.0022
539.922	-0.0036
540.269	0.0022
540.617	0.0021
540.964	0.0029
541.311	0.0023
541.658	0.0044
542.005	0.0039
542.352	0.0009
542.699	-0.0017
543.045	-0.0042
543.392	-0.0007
543.739	-0.0023
544.086	0.0006
544.432	-0.004
544.779	0.0007
545.126	0.0002
545.472	0.001
545.819	-0.0001
546.165	-0.0005
546.512	0.0014
546.858	0.0027
547.204	0.0022
547.55	0.0008
547.897	-0.0006
548.243	-0.0033
548.589	0.0018
548.935	-0.0001
549.281	0.0035
549.627	-0.0007
549.973	0.003
550.319	0.0019
550.665	0.0023
551.01	-0.0031
551.356	-0.0063
551.702	-0.0087
552.048	-0.0098
552.393	-0.0048
552.739	-0.001
553.084	0.0054
553.43	0.0031
553.775	0.001
554.12	0.0005
554.466	0.0062
554.811	0.0082
555.156	0.006
555.502	0.0064
555.847	0.0044
556.192	0.0038
556.537	0.0017
556.882	0.0036
557.227	0.0002
557.572	0.0013
557.917	0.0068
558.261	0.0055
558.606	0.0018
558.951	-0.0054
559.295	-0.0058
559.64	-0.002
559.985	0
560.329	0.0055
560.674	0.005
561.018	0.0011
561.363	-0.001
561.707	-0.0049
562.051	-0.0036
562.395	0.0042
562.74	0.0088
563.084	0.0104
563.428	0.0058
563.772	0.0059
564.116	0.0031
564.46	0.0022
564.804	0.0029
565.148	-0.0014
565.492	0.0015
565.835	0.002
566.179	0.0102
566.523	0.0037
566.866	-0.0011
567.21	-0.0034
567.554	0.0042
567.897	0.0066
568.24	0.0028
568.584	-0.0032
568.927	-0.0028
569.271	-0.0032
569.614	-0.0012
569.957	-0.0009
570.3	0.0057
570.643	0.0049
570.986	0.0015
571.329	0.0023
571.672	0.0052
572.015	0.0074
572.358	0.0058
572.701	0.0101
573.044	0.0034
573.387	0.0032
573.729	0.0044
574.072	0.0104
574.414	0.0114
574.757	0.0097
575.099	-0.0034
575.442	-0.0097
575.784	0.0014
576.127	0.0124
576.469	0.0126
576.811	0.0022
577.153	0.0026
577.496	0.0034
577.838	0.0034
578.18	-0.0084
578.522	-0.0098
578.864	-0.0112
579.206	0.0085
579.548	0.0099
579.889	0.0003
580.231	0.011
580.573	0.0191
580.915	0.0153
581.256	-0.0049
581.598	-0.021
581.939	-0.0226
582.281	-0.0001
582.622	-0.001
582.964	0.0045
583.305	-0.0072
583.646	0.0033
583.988	0.0345
584.329	0.0206
584.67	0.0087
585.011	-0.0172
585.352	-0.0212
585.693	-0.0101
586.034	-0.0146
586.375	-0.0109
586.716	-0.0068
587.057	0.0007
587.398	0.0142
587.738	0.0205
588.079	0.0103
588.42	0.0053
588.76	-0.0121
589.101	-0.0084
589.441	-0.0133
589.782	-0.0025
590.122	0.0052
590.463	0.0067
590.803	-0.0021
591.143	-0.002
591.483	-0.0073
591.823	-0.0105
592.164	-0.0118
592.504	0.0002
592.844	0.0063
593.184	0.0003
593.523	-0.0101
593.863	-0.0087
594.203	-0.0005
594.543	0.0086
594.883	0.0015
595.222	0.0079
595.562	0.0207
595.901	0.0189
596.241	0.0068
596.58	-0.0092
596.92	-0.0144
597.259	-0.0177
597.599	-0.0079
597.938	0.0097
598.277	0.0105
598.616	-0.0044
598.955	-0.0132
599.295	-0.0092
599.634	0.0053
599.973	0.0105
600.312	0.0152
600.65	0.0029
600.989	0.0034
601.328	0.0076
601.667	0.0271
602.005	0.0112
602.344	0.0039
602.683	0.0003
603.021	0.0069
603.36	-0.0019
603.698	-0.0083
604.037	-0.0104
604.375	-0.0071
604.713	-0.012
605.052	-0.0079
605.39	-0.005
605.728	-0.0014
606.066	0.0166
606.404	0.0181
606.742	0.0102
607.08	0.0007
607.418	-0.0073
607.756	0.0028
608.094	0.0064
608.431	0.0107
608.769	0.0131
609.107	-0.0003
609.444	0.0072
609.782	-0.0021
610.12	0.009
610.457	0.0007
610.794	-0.012
611.132	-0.0124
611.469	-0.012
611.806	-0.0051
612.144	-0.0139
612.481	-0.0055
612.818	0.0074
613.155	0.0006
613.492	-0.0046
613.829	-0.0064
614.166	0.0057
614.503	0.0041
614.84	-0.0022
615.176	-0.0064
615.513	-0.0021
615.85	0.0001
616.187	0.0062
616.523	-0.001
616.86	-0.0031
617.196	0.0032
617.533	0.0188
617.869	0.0124
618.205	0.0011
618.542	-0.0148
618.878	-0.018
619.214	-0.0088
619.55	-0.0053
619.886	-0.0015
620.222	-0.0143
620.558	-0.0068
620.894	0.0043
621.23	0.0055
621.566	-0.0004
621.902	-0.0052
622.238	-0.0066
622.573	0.0089
622.909	0.0029
623.244	0.0065
623.58	-0.0122
623.916	-0.0147
624.251	-0.0003
624.586	0.0151
624.922	0.0195
625.257	-0.0007
625.592	-0.0075
625.927	-0.0065
626.263	-0.0027
626.598	-0.0023
626.933	0.0021
627.268	0.0077
627.603	-0.0008
627.938	-0.0096
628.272	-0.0055
628.607	-0.0041
628.942	-0.0016
629.277	-0.0089
629.611	0.0034
629.946	0.0113
630.281	0.0063
630.615	-0.002
630.949	-0.0134
631.284	-0.0066
631.618	0.0023
631.953	0.0122
632.287	0.0117
632.621	0
632.955	-0.0064
633.289	-0.0108
633.623	-0.0054
633.957	-0.0039
634.291	-0.0016
634.625	0.0049
634.959	0.0007
635.293	0.0059
635.627	0.0035
635.96	0.0061
636.294	-0.0001
636.627	-0.0037
636.961	0.0032
637.294	0.003
637.628	-0.0018
637.961	-0.0083
638.295	-0.0072
638.628	0.0035
638.961	0.0068
639.294	0.0081
639.628	-0.0053
639.961	-0.0095
640.294	-0.011
640.627	-0.0023
640.96	0.0017
641.293	0.0058
641.625	0.0034
641.958	-0.0012
642.291	-0.0068
642.624	-0.0052
642.956	-0.0035
643.289	-0.0013
643.621	-0.0013
643.954	0.0012
644.286	0.0019
644.619	-0.0011
644.951	-0.004
645.283	-0.0055
645.616	0.0003
645.948	0.0019
646.28	0.0068
646.612	0.0023
646.944	0.0009
647.276	-0.0033
647.608	-0.0016
647.94	0.0016
648.272	0.0018
648.603	0.0025
648.935	0.0013
649.267	0.003
649.598	0.0027
649.93	0.0001
650.261	0.0029
650.593	0.011
650.924	0.0199
651.256	0.015
651.587	0.0049
651.918	-0.0006
652.25	-0.0027
652.581	-0.0021
652.912	-0.0048
653.243	-0.0053
653.574	-0.0011
653.905	0.0004
654.236	0.0033
654.567	0.0023
654.897	0.0015
655.228	-0.004
655.559	-0.0009
655.89	0.0017
656.22	-0.0021
656.551	-0.0066
656.881	-0.0083
657.212	-0.0007
657.542	0.0027
657.872	0.0081
658.203	0.0175
658.533	0.1147
658.863	0.0598
659.193	0.0142
659.523	-0.0376
659.853	-0.0842
660.183	-0.0476
660.513	-0.0187
660.843	-0.0053
661.173	-0.0001
661.503	-0.0013
661.833	0.0028
662.162	-0.0022
662.492	-0.0032
662.822	-0.0099
663.151	-0.007
663.481	-0.0026
663.81	0.0041
664.139	0.0104
664.469	0.0078
664.798	0.0056
665.127	0.0018
665.456	0.0031
665.785	0.0001
666.114	-0.001
666.443	-0.0004
666.772	0.001
667.101	0.0038
667.43	0.0051
667.759	0.0024
668.088	0.0002
668.416	-0.005
668.745	-0.0018
669.074	0.0012
669.402	0.0098
669.731	0.0099
670.059	0.0106
670.388	0.0017
670.716	0.0038
671.044	-0.0025
671.372	-0.0048
671.701	-0.0062
672.029	0.0013
672.357	0.0058
672.685	0.0027
673.013	0.0028
673.341	-0.0033
673.669	-0.0044
673.996	-0.0068
674.324	0.0098
674.652	0.0122
674.98	0.0104
675.307	0.0033
675.635	-0.0024
675.962	-0.0001
676.29	-0.0086
676.617	-0.0079
676.945	-0.0106
677.272	-0.0097
677.599	-0.0034
677.926	-0.0024
678.253	0.0038
678.581	-0.0004
678.908	0.0027
679.235	0.0075
679.561	0.0044
679.888	-0.0064
680.215	-0.0097
680.542	0.0061
680.869	0.0089
681.195	0.0058
681.522	-0.0038
681.849	-0.0028
682.175	0.003
682.502	0.0073
682.828	0.0063
683.154	-0.0024
683.481	-0.0065
683.807	-0.007
684.133	0.0065
684.459	0.0069
684.785	0.0125
685.111	0.0005
685.437	0.0043
685.763	-0.0012
686.089	0.0065
686.415	0.008
686.741	0.007
687.067	0.0065
687.392	-0.001
687.718	0.0031
688.043	0.0041
688.369	0.0061
688.694	0.0024
689.02	-0.001
689.345	-0.0065
689.67	-0.0044
689.996	-0.0019
690.321	0.0066
690.646	0.0042
690.971	0.0006
691.296	-0.0025
691.621	-0.0042
691.946	-0.0026
692.271	0.0017
692.596	-0.0012
692.921	-0.0028
693.245	-0.0094
693.57	0
693.895	0.0073
694.219	0.0086
694.544	0.0025
694.868	-0.0067
695.193	-0.0048
695.517	0.0038
695.841	0.0104
696.166	0.0066
696.49	0.0009
696.814	-0.0024
697.138	-0.0032
697.462	0.0012
697.786	0.0035
698.11	0.0129
698.434	0.0061
698.758	-0.0026
699.081	-0.0127
699.405	-0.0081
699.729	0.0173
700.052	0.0182
700.376	0.0128
700.7	-0.006
701.023	-0.0085
701.346	-0.0041
701.67	0.0011
701.993	0.0009
702.316	0.0014
702.639	0.003
702.963	0.0012
703.286	-0.0001
703.609	-0.0001
703.932	-0.0003
704.255	-0.0008
704.578	0.0038
704.9	0.0086
705.223	0.0088
705.546	0.003
705.868	-0.0017
706.191	-0.0033
706.514	-0.0048
706.836	-0.0027
707.159	-0.0002
707.481	0.0002
707.803	0.0004
708.126	-0.0046
708.448	-0.0016
708.77	0.0025
709.092	0.0053
709.414	0.0135
709.736	0.0162
710.058	0.0134
710.38	0.0006
710.702	-0.0047
711.024	-0.006
711.345	-0.0052
711.667	-0.0079
711.989	-0.0059
712.31	0.0004
712.632	0.0064
712.953	0.0068
713.275	0.0047
713.596	0.0051
713.917	0.0014
714.239	-0.0037
714.56	-0.0064
714.881	-0.0012
715.202	0.0029
715.523	0.0078
715.844	0.0032
716.165	0.0068
716.486	0.0016
716.807	0.0012
717.128	0.0012
717.448	-0.0004
717.769	-0.0003
718.09	-0.0026
718.41	-0.0024
718.731	-0.0003
719.051	-0.0036
719.372	-0.0052
719.692	0.0008
720.012	0.0049
720.332	0.0017
720.653	0.0029
720.973	0.0087
721.293	0.0062
721.613	-0.002
721.933	-0.0097
722.253	0.0001
722.573	-0.0015
722.892	-0.0078
723.212	-0.0126
723.532	-0.0085
723.851	-0.0017
724.171	0.0009
724.491	0.005
724.81	0.0056
725.129	0.0034
725.449	-0.0012
725.768	0.0003
726.087	0.0031
726.407	0.0016
726.726	-0.0015
727.045	-0.0081
727.364	-0.0035
727.683	-0.0034
728.002	0.004
728.321	0.0012
728.64	-0.0013
728.958	-0.0028
729.277	-0.0053
729.596	-0.0051
729.914	-0.0051
730.233	0.0009
730.551	0.0081
730.87	0.0057
731.188	0.006
731.507	-0.001
731.825	0
732.143	-0.0029
732.461	0.0038
732.779	0.0074
733.097	0.0066
733.415	0.0111
733.733	0.0138
734.051	0.0049
734.369	-0.0009
734.687	-0.0131
735.005	-0.0084
735.322	-0.007
735.64	0.0039
735.957	0.0053
736.275	0.0028
736.592	0.0017
736.91	0.001
737.227	0.0023
737.544	-0.0068
737.862	-0.0039
738.179	-0.0064
738.496	0.0013
738.813	-0.0025
739.13	-0.0085
739.447	-0.0085
739.764	-0.0019
740.081	0.004
740.398	-0.0029
740.714	-0.0061
741.031	-0.0037
741.348	0.0066
741.664	0.0126
741.981	0.0155
742.297	0.0015
742.614	-0.0084
742.93	-0.0198
743.246	-0.0104
743.563	-0.006
743.879	-0.0014
744.195	-0.005
744.511	-0.0029
744.827	-0.0044
745.143	0.0045
745.459	0.0072
745.775	0.0071
746.091	0.0025
746.406	-0.0022
746.722	0.0004
747.038	-0.0005
747.353	0.0004
747.669	0.0012
747.984	0.0007
748.3	0.008
748.615	0.011
748.93	0.0098
749.246	-0.0033
749.561	-0.0019
749.876	0.0042
750.191	0.0079
750.506	0
750.821	-0.0046
751.136	0.0008
751.451	0.0033
751.766	0.0002
752.08	0.0024
752.395	0.0038
752.71	0.0066
753.024	0.0019
753.339	-0.0016
753.653	-0.0019
753.968	0.004
754.282	0.0088
754.596	0.01
754.911	0.0049
755.225	0.0092
755.539	0.0065
755.853	0.0019
756.167	-0.004
756.481	-0.0043
756.795	-0.0032
757.109	-0.004
757.423	0.0001
757.736	0.0041
758.05	0.0075
758.364	0.0065
758.677	0.0021
758.991	-0.0021
759.304	0.0005
759.618	0.0064
759.931	0.0077
760.244	0.0111
760.558	0.0059
760.871	-0.0009
761.184	-0.0162
761.497	-0.0204
761.81	-0.0099
762.123	0.0028
762.436	0.0079
762.749	-0.0004
763.062	-0.0021
763.374	0.0021
763.687	0.002
764	0.0004
764.312	-0.0102
764.625	-0.0088
764.937	-0.0117
765.25	-0.008
765.562	0.0027
765.874	0.0017
766.186	0.0072
766.499	-0.0025
766.811	-0.0002
767.123	0.005
767.435	0.0085
767.747	0.0084
768.059	-0.0002
768.37	-0.0044
768.682	-0.0084
768.994	-0.0154
769.306	-0.0143
769.617	-0.0087
769.929	-0.0008
770.24	-0.0002
770.552	0.0014
770.863	0.0027
771.174	0.0015
771.486	-0.002
771.797	-0.0061
772.108	-0.0113
772.419	-0.016
772.73	-0.0122
773.041	-0.0052
773.352	-0.0005
773.663	-0.0036
773.974	-0.0063
774.285	-0.0107
774.595	-0.0077
774.906	-0.0048
775.217	0.0015
775.527	0.0003
775.838	-0.0007
776.148	-0.0001
776.458	-0.0026
776.769	-0.0012
777.079	-0.0031
777.389	0.0021
777.699	0.0042
778.009	0.0037
778.319	0.0018
778.629	-0.0094
778.939	-0.0095
779.249	-0.0076
779.559	0.0035
779.869	0.0011
780.178	-0.0024
780.488	-0.0111
780.798	-0.0078
781.107	-0.0037
781.417	0.0053
781.726	0.004
782.035	0.0024
782.345	-0.0023
782.654	-0.0028
782.963	-0.0002
783.272	0.0016
783.581	0.0069
783.89	0.0097
784.199	0.0073
784.508	-0.0004
784.817	-0.0092
785.126	-0.0097
785.434	-0.0037
785.743	-0.004
786.052	0.005
786.36	0.0046
786.669	0.0075
786.977	0.0006
787.285	-0.0006
787.594	0.0006
787.902	0.0014
788.21	0.0009
788.518	0.0073
788.826	0.0064
789.135	0.0049
789.442	-0.0053
789.75	-0.0073
790.058	-0.005
790.366	-0.0013
790.674	0.0011
790.981	0.003
791.289	0.0022
791.597	-0.0036
791.904	-0.0076
792.212	-0.0051
792.519	-0.0024
792.826	0.0043
793.134	0
793.441	0.0015
793.748	-0.0018
794.055	0.0047
794.362	0.009
794.669	0.0015
794.976	-0.0021
795.283	-0.0112
795.59	-0.0034
795.897	-0.0066
796.203	-0.0039
796.51	0.0106
796.817	0.015
797.123	0.0102
797.43	-0.0037
797.736	-0.004
798.042	-0.0077
798.349	-0.0101
798.655	-0.0196
798.961	-0.0039
799.267	0.0013
799.573	0.0062
799.879	-0.0025
800.185	-0.0039
800.491	-0.0059
800.797	-0.0071
801.103	-0.0101
801.408	-0.0035
801.714	0.0029
802.02	0.0038
802.325	0.0051
802.631	-0.0005
802.936	0.0031
803.242	-0.001
803.547	-0.0023
803.852	0.0032
804.157	0.0042
804.462	0.0093
804.768	-0.0007
805.073	0.0015
805.378	0.0018
805.682	0.0057
805.987	0.0065
806.292	0.005
806.597	0.0014
806.902	-0.0025
807.206	-0.0078
807.511	-0.011
807.815	-0.01
808.12	-0.0008
808.424	0.0079
808.728	0.0099
809.033	0.0068
809.337	-0.0013
809.641	-0.0107
809.945	-0.0078
810.249	-0.0023
810.553	-0.0011
810.857	-0.003
811.161	-0.0075
811.465	-0.0008
811.768	-0.0084
812.072	-0.0047
812.376	-0.0002
812.679	0.013
812.983	0.0139
813.286	0.007
813.59	0.0035
813.893	0.005
814.196	0.0065
814.499	0.0012
814.803	-0.0029
815.106	-0.0014
815.409	-0.0051
815.712	-0.0009
816.015	0.0014
816.318	0.0071
816.62	0.0021
816.923	-0.0074
817.226	-0.0118
817.528	-0.0066
817.831	0.001
818.133	-0.0001
818.436	-0.0015
818.738	-0.0039
819.041	0.0063
819.343	0.0009
819.645	0.0003
819.947	-0.0013
820.249	-0.0042
820.551	-0.0008
820.853	-0.0109
821.155	-0.0049
821.457	-0.0121
821.759	-0.0112
822.061	-0.0119
822.362	-0.0088
822.664	-0.0012
822.966	0.0085
823.267	0.01
823.569	0.0078
823.87	-0.0069
824.171	-0.014
824.473	-0.0182
824.774	-0.01
825.075	-0.001
825.376	0.0017
825.677	0.0028
825.978	0.0015
826.279	-0.0075
826.58	-0.0166
826.881	-0.0227
827.181	-0.0142
827.482	-0.0121
827.783	-0.0099
828.083	-0.0038
828.384	-0.0019
828.684	-0.0062
828.985	-0.0057
829.285	0.0042
829.585	0.0034
829.885	0.0014
830.185	-0.0012
830.486	0.0007
830.786	-0.006
831.086	-0.0169
831.385	-0.0149
831.685	-0.0154
831.985	-0.016
832.285	-0.0185
832.585	-0.0106
832.884	-0.0089
833.184	-0.0119
833.483	-0.0198
833.783	-0.0202
834.082	-0.0102
834.381	-0.0114
834.681	-0.0064
834.98	-0.0075
835.279	-0.0025
835.578	-0.0018
835.877	-0.0126
836.176	-0.0144
836.475	-0.0125
836.774	-0.0011
837.072	0.0035
837.371	0.0091
837.67	0.0059
837.968	0.0038
838.267	-0.0032
838.565	-0.0022
838.864	0.0002
839.162	-0.0069
839.46	-0.0158
839.759	-0.0228
840.057	-0.0176
840.355	-0.0087
840.653	-0.0062
840.951	-0.0062
841.249	-0.0163
841.547	-0.0259
841.845	-0.0252
842.142	-0.01
842.44	0.0069
842.738	0.0099
843.035	0.009
843.333	0.001
843.63	-0.0066
843.928	-0.0038
844.225	-0.0084
844.522	-0.0087
844.82	-0.017
845.117	-0.0034
845.414	0.0078
845.711	0.0033
846.008	-0.0074
846.305	-0.0102
846.602	0.0001
846.898	0.0044
847.195	-0.0053
847.492	-0.011
847.788	-0.0083
848.085	0.0026
848.382	0.0057
848.678	0.0047
848.974	-0.0015
849.271	-0.0093
849.567	-0.0148
849.863	-0.0283
850.159	-0.0156
850.455	-0.0048
850.751	0.0225
851.047	0.0075
851.343	0.0008
851.639	-0.0168
851.935	0.0011
852.23	0.0057
852.526	0.0045
852.822	0.0178
853.117	0.0145
853.413	0.0198
853.708	0.004
854.003	0.0128
854.299	-0.0012
854.594	-0.0012
854.889	-0.0123
855.184	0.0026
855.479	0.0021
855.774	-0.0038
856.069	-0.0044
856.364	-0.0006
856.659	0.0101
856.954	0.0281
857.248	0.0146
857.543	0.0016
857.837	-0.034
858.132	-0.019
858.426	-0.0115
858.721	-0.0018
859.015	-0.0066
859.309	-0.0076
859.604	-0.0045
859.898	-0.0035
860.192	-0.0001
860.486	0.0004
860.78	-0.0255
861.074	-0.0349
861.367	-0.0482
861.661	-0.0156
861.955	0.0005
862.248	0.0183
862.542	-0.0131
862.836	-0.0264
863.129	-0.0153
863.422	-0.0116
863.716	-0.0147
864.009	-0.0387
864.302	-0.014
864.595	-0.0052
864.889	0.0263
865.182	0.0112
865.475	0.0186
865.767	-0.002
866.06	-0.0066
866.353	-0.0392
866.646	-0.0221
866.938	-0.0125
867.231	-0.0032
867.524	-0.0201
867.816	-0.0251
868.109	-0.0049
868.401	0.0038
868.693	0.0136
868.985	0.028
869.278	0.0414
869.57	0.0334
869.862	-0.0035
870.154	-0.0467
870.446	-0.0042
870.738	0.0053
871.029	0.0228
871.321	-0.0153
871.613	-0.0079
871.904	-0.027
872.196	-0.0245
872.487	-0.0597
872.779	-0.048
873.07	-0.0411
873.362	-0.0148
873.653	-0.021
873.944	-0.0118
874.235	-0.0125
874.526	0.0275
874.817	0.0126
875.108	0.0111
875.399	0.0017
875.69	0.0092
875.981	0.0135
876.271	-0.0128
876.562	-0.0318
876.853	-0.0257
877.143	-0.0218
877.434	0.0048
877.724	0.0177
878.014	0.0431
878.305	0.0226
878.595	-0.0051
878.885	-0.0203
879.175	0.0184
879.465	0.0129
879.755	0.0064
880.045	-0.0201
880.335	-0.0003
880.624	0.0222
880.914	0.0222
