Data from 45SS03BU-alt2-2_080317_1a_Absorbance_15-14-56-001.txt Node
Date: Sun Aug 06 15:14:56 MDT 2017
User: Tank Lab
Spectrometer: FLMS01220
Trigger mode: 0
Integration Time (sec): 1.000000E-1
Scans to average: 10
Electric dark correction enabled: true
Nonlinearity correction enabled: false
Boxcar width: 1
XAxis mode: Wavelengths
Number of Pixels in Spectrum: 2048
>>>>>Begin Spectral Data<<<<<
179.47	0.1584
179.856	0.1584
180.241	0.3434
180.626	-0
181.011	-0
181.396	-0
181.781	0.3189
182.166	-0
182.551	0.2083
182.936	0.1565
183.321	-0.4906
183.706	-0
184.091	0.8665
184.476	-0
184.86	0.0569
185.245	-0.5003
185.63	-0
186.015	0.0695
186.399	-0.058
186.784	-0.4524
187.169	0.2112
187.553	0.1316
187.938	-0
188.322	-0.0855
188.707	-0.0507
189.091	-0.0092
189.475	0.0007
189.86	0.0461
190.244	0.0891
190.629	0.1061
191.013	0.1331
191.397	0.1794
191.781	0.2721
192.165	0.3065
192.55	0.3366
192.934	0.3729
193.318	0.4489
193.702	0.4669
194.086	0.4739
194.47	0.4463
194.854	0.453
195.238	0.4421
195.622	0.4322
196.006	0.4305
196.389	0.4206
196.773	0.4131
197.157	0.3902
197.541	0.3656
197.924	0.3505
198.308	0.3279
198.692	0.31
199.075	0.2817
199.459	0.2645
199.843	0.2511
200.226	0.2374
200.61	0.2248
200.993	0.2134
201.376	0.2057
201.76	0.1957
202.143	0.1815
202.527	0.1725
202.91	0.1608
203.293	0.1557
203.676	0.1495
204.059	0.1452
204.443	0.1378
204.826	0.1324
205.209	0.1283
205.592	0.1261
205.975	0.123
206.358	0.1198
206.741	0.1166
207.124	0.115
207.507	0.1169
207.89	0.1159
208.273	0.1135
208.655	0.1099
209.038	0.1096
209.421	0.1093
209.804	0.1051
210.186	0.1049
210.569	0.1008
210.951	0.1026
211.334	0.0993
211.717	0.0982
212.099	0.0965
212.482	0.0956
212.864	0.0979
213.246	0.0977
213.629	0.0957
214.011	0.094
214.393	0.0924
214.776	0.0913
215.158	0.0874
215.54	0.0866
215.922	0.0871
216.305	0.087
216.687	0.0855
217.069	0.084
217.451	0.084
217.833	0.0812
218.215	0.0811
218.597	0.0784
218.979	0.0778
219.361	0.0723
219.742	0.0729
220.124	0.0715
220.506	0.0721
220.888	0.0687
221.27	0.0662
221.651	0.0653
222.033	0.0643
222.415	0.0642
222.796	0.0617
223.178	0.0614
223.559	0.0601
223.941	0.0594
224.322	0.0586
224.704	0.057
225.085	0.0565
225.466	0.0536
225.848	0.0527
226.229	0.0509
226.61	0.0493
226.992	0.0491
227.373	0.0469
227.754	0.0465
228.135	0.0444
228.516	0.0452
228.897	0.0453
229.278	0.0437
229.659	0.0439
230.04	0.0436
230.421	0.0442
230.802	0.0428
231.183	0.0423
231.564	0.0427
231.944	0.0423
232.325	0.0406
232.706	0.0371
233.087	0.035
233.467	0.0339
233.848	0.0348
234.229	0.0342
234.609	0.035
234.99	0.0349
235.37	0.0337
235.751	0.0327
236.131	0.0304
236.511	0.0302
236.892	0.0281
237.272	0.0283
237.652	0.0281
238.033	0.0274
238.413	0.0269
238.793	0.0272
239.173	0.028
239.553	0.0278
239.933	0.0265
240.313	0.0253
240.694	0.0249
241.074	0.0258
241.453	0.0256
241.833	0.0251
242.213	0.0244
242.593	0.025
242.973	0.0258
243.353	0.0245
243.732	0.0237
244.112	0.0223
244.492	0.0218
244.872	0.0204
245.251	0.0208
245.631	0.0204
246.01	0.021
246.39	0.0205
246.769	0.0218
247.149	0.0216
247.528	0.0216
247.908	0.0214
248.287	0.0204
248.666	0.0199
249.045	0.0203
249.425	0.0223
249.804	0.0224
250.183	0.0201
250.562	0.0191
250.941	0.0195
251.32	0.0207
251.699	0.021
252.078	0.0218
252.457	0.0204
252.836	0.0196
253.215	0.0178
253.594	0.0186
253.973	0.0186
254.352	0.0182
254.731	0.0168
255.109	0.0173
255.488	0.0178
255.867	0.0201
256.245	0.0193
256.624	0.0201
257.002	0.0197
257.381	0.0196
257.759	0.0191
258.138	0.0184
258.516	0.0176
258.895	0.0182
259.273	0.0193
259.651	0.0205
260.03	0.0202
260.408	0.0201
260.786	0.0201
261.164	0.0201
261.542	0.0185
261.921	0.0181
262.299	0.0168
262.677	0.0174
263.055	0.017
263.433	0.0174
263.811	0.0171
264.188	0.0182
264.566	0.0185
264.944	0.0175
265.322	0.0164
265.7	0.0161
266.077	0.0175
266.455	0.0192
266.833	0.0199
267.21	0.0196
267.588	0.0181
267.966	0.0172
268.343	0.0171
268.721	0.0163
269.098	0.0163
269.475	0.0172
269.853	0.0187
270.23	0.0192
270.607	0.0181
270.985	0.0172
271.362	0.0162
271.739	0.0164
272.116	0.0169
272.494	0.0177
272.871	0.0169
273.248	0.0157
273.625	0.0148
274.002	0.015
274.379	0.017
274.756	0.0172
275.132	0.0171
275.509	0.0158
275.886	0.0162
276.263	0.0174
276.64	0.0177
277.016	0.0174
277.393	0.0172
277.77	0.0161
278.146	0.0153
278.523	0.014
278.899	0.0139
279.276	0.0138
279.652	0.0158
280.029	0.0167
280.405	0.0178
280.782	0.0156
281.158	0.016
281.534	0.0154
281.91	0.0165
282.287	0.0156
282.663	0.0166
283.039	0.0155
283.415	0.017
283.791	0.0165
284.167	0.0182
284.543	0.0167
284.919	0.0152
285.295	0.014
285.671	0.0137
286.047	0.015
286.423	0.0147
286.799	0.0148
287.174	0.0144
287.55	0.0145
287.926	0.0146
288.301	0.0146
288.677	0.0158
289.053	0.0154
289.428	0.015
289.804	0.0142
290.179	0.015
290.555	0.0149
290.93	0.0153
291.305	0.0159
291.681	0.0168
292.056	0.0166
292.431	0.0179
292.806	0.0187
293.182	0.0174
293.557	0.0156
293.932	0.0145
294.307	0.0168
294.682	0.0156
295.057	0.0151
295.432	0.0134
295.807	0.0141
296.182	0.0142
296.557	0.0142
296.932	0.0141
297.306	0.0137
297.681	0.0122
298.056	0.0118
298.43	0.0129
298.805	0.0134
299.18	0.0146
299.554	0.0143
299.929	0.0151
300.303	0.0161
300.678	0.0148
301.052	0.016
301.427	0.0143
301.801	0.0162
302.175	0.0152
302.55	0.0163
302.924	0.015
303.298	0.0146
303.672	0.0128
304.046	0.0129
304.421	0.0122
304.795	0.0122
305.169	0.0126
305.543	0.0139
305.917	0.0156
306.291	0.015
306.664	0.0144
307.038	0.013
307.412	0.0137
307.786	0.015
308.16	0.0155
308.533	0.0134
308.907	0.0129
309.281	0.0132
309.654	0.0156
310.028	0.0151
310.401	0.0127
310.775	0.0127
311.148	0.0108
311.522	0.0125
311.895	0.0111
312.268	0.0131
312.642	0.012
313.015	0.0138
313.388	0.0136
313.761	0.0135
314.135	0.0117
314.508	0.011
314.881	0.0113
315.254	0.0112
315.627	0.0127
316	0.0133
316.373	0.0123
316.746	0.0118
317.118	0.0108
317.491	0.0119
317.864	0.011
318.237	0.012
318.61	0.0117
318.982	0.0105
319.355	0.01
319.727	0.0095
320.1	0.0103
320.473	0.0099
320.845	0.0109
321.218	0.0104
321.59	0.0099
321.962	0.0086
322.335	0.0103
322.707	0.0111
323.079	0.0132
323.452	0.0114
323.824	0.011
324.196	0.0107
324.568	0.0107
324.94	0.0112
325.312	0.0103
325.684	0.0107
326.056	0.009
326.428	0.0098
326.8	0.01
327.172	0.0115
327.544	0.0106
327.915	0.0112
328.287	0.0101
328.659	0.0098
329.031	0.0096
329.402	0.0088
329.774	0.0082
330.145	0.0075
330.517	0.0081
330.888	0.0074
331.26	0.0077
331.631	0.0073
332.003	0.0089
332.374	0.0082
332.745	0.0097
333.117	0.0068
333.488	0.0045
333.859	0.0038
334.23	0.0045
334.601	0.0076
334.972	0.006
335.343	0.0084
335.714	0.007
336.085	0.0071
336.456	0.0048
336.827	0.0062
337.198	0.0072
337.569	0.0086
337.94	0.0071
338.31	0.0068
338.681	0.0054
339.052	0.0059
339.422	0.0052
339.793	0.0051
340.164	0.0047
340.534	0.0042
340.905	0.0032
341.275	0.0023
341.645	0.0023
342.016	0.0037
342.386	0.004
342.756	0.0041
343.127	0.0052
343.497	0.0055
343.867	0.0046
344.237	0.0032
344.607	0.0036
344.977	0.0057
345.347	0.0065
345.717	0.0063
346.087	0.0044
346.457	0.0042
346.827	0.0028
347.197	0.0026
347.567	0.002
347.936	0.0017
348.306	0.0026
348.676	0.0039
349.046	0.0041
349.415	0.0051
349.785	0.0051
350.154	0.0049
350.524	0.0044
350.893	0.0032
351.263	0.0041
351.632	0.0053
352.001	0.0047
352.371	0.0062
352.74	0.0053
353.109	0.0053
353.478	0.0051
353.847	0.0049
354.217	0.0064
354.586	0.0058
354.955	0.0048
355.324	0.0022
355.693	0.0021
356.062	0.0046
356.43	0.0065
356.799	0.0056
357.168	0.0033
357.537	0.0022
357.906	0.0022
358.274	0.0023
358.643	0.0024
359.011	0.0015
359.38	0.0026
359.749	0.0021
360.117	0.0035
360.486	0.0025
360.854	0.004
361.222	0.0026
361.591	0.0027
361.959	0.0028
362.327	0.0037
362.695	0.0024
363.064	0.0015
363.432	0.0006
363.8	0.0016
364.168	0.0015
364.536	0.004
364.904	0.0049
365.272	0.0051
365.64	0.0045
366.008	0.0022
366.376	0.0001
366.743	-0.0012
367.111	0.0009
367.479	0.0045
367.847	0.0046
368.214	0.0024
368.582	0.0008
368.949	0.0002
369.317	0.0046
369.684	0.0043
370.052	0.0042
370.419	0.0019
370.787	0.0032
371.154	0.002
371.521	0.0032
371.889	0.0023
372.256	0.0058
372.623	0.0033
372.99	0.0025
373.357	0.0005
373.724	0.0019
374.091	0.002
374.458	0.0029
374.825	0.0028
375.192	0.0039
375.559	0.0036
375.926	0.0044
376.293	0.0038
376.659	0.0027
377.026	0.0018
377.393	0.0021
377.759	0.0021
378.126	0.0017
378.492	0.002
378.859	0.0027
379.225	0.0024
379.592	0.0027
379.958	0.0035
380.325	0.0027
380.691	0.0014
381.057	0.0001
381.423	0.001
381.79	0
382.156	-0.0004
382.522	0.0003
382.888	0.0019
383.254	0.0021
383.62	0.0017
383.986	-0.0001
384.352	0.0011
384.718	0.0003
385.084	0.0008
385.449	-0.0005
385.815	-0.0006
386.181	0.0007
386.547	0.001
386.912	0.0001
387.278	-0.0026
387.643	-0.0033
388.009	-0.0018
388.374	0.0005
388.74	0.0022
389.105	0.0008
389.471	0.0004
389.836	-0.0013
390.201	0.0014
390.566	0.0025
390.932	0.0052
391.297	0.0039
391.662	0.0025
392.027	0.0008
392.392	-0.0004
392.757	-0.0008
393.122	0.0006
393.487	0.0017
393.852	0.0036
394.217	0.0018
394.582	0.0018
394.946	0.0014
395.311	0.0033
395.676	0.0038
396.04	0.0021
396.405	0.0006
396.77	-0.0002
397.134	0.0024
397.499	0.0013
397.863	0.0015
398.227	0.0003
398.592	0.002
398.956	0.0017
399.32	0.0014
399.685	0.0014
400.049	0.0006
400.413	0.0003
400.777	-0.0005
401.141	-0.0007
401.505	-0.001
401.869	-0.0026
402.233	-0.0003
402.597	0.0004
402.961	0.0025
403.325	0.0007
403.689	-0.0007
404.053	0.0003
404.416	-0.0005
404.78	0.0002
405.144	-0.0018
405.507	-0.002
405.871	-0.0038
406.234	-0.0041
406.598	-0.0027
406.961	0
407.325	0.0005
407.688	0.0003
408.051	-0
408.415	0.0012
408.778	0.0019
409.141	0.0013
409.504	0.0001
409.867	-0.0001
410.23	-0
410.593	-0.0005
410.956	-0.0005
411.319	-0.0001
411.682	0.0009
412.045	-0.0002
412.408	-0
412.771	0.0007
413.134	0.0025
413.496	0.0031
413.859	0.0003
414.222	0.0008
414.584	-0.0007
414.947	0.0017
415.309	-0.0013
415.672	-0.0007
416.034	-0.0012
416.396	0.0005
416.759	0.0007
417.121	0.0005
417.483	0.0014
417.846	-0.0005
418.208	0.0003
418.57	-0.0015
418.932	-0.0013
419.294	-0.0016
419.656	0.0003
420.018	0.0028
420.38	0.0028
420.742	0.0017
421.104	0.0005
421.466	0.0011
421.827	0.0029
422.189	0.0044
422.551	0.0037
422.912	0.001
423.274	-0.0003
423.636	-0.002
423.997	-0.0041
424.359	-0.0034
424.72	-0.0019
425.081	-0.0007
425.443	-0.0012
425.804	-0.001
426.165	0.0004
426.527	-0.0003
426.888	-0.0006
427.249	0.0006
427.61	0.0004
427.971	-0.0001
428.332	-0.0025
428.693	-0.0006
429.054	0.0006
429.415	0.002
429.776	-0.001
430.137	-0.0021
430.498	-0.0026
430.858	0.0001
431.219	0.0007
431.58	0.0028
431.94	0.0021
432.301	0.0021
432.661	-0.0003
433.022	-0.001
433.382	-0.0029
433.743	-0.0026
434.103	-0.0019
434.463	0.0002
434.824	0.0004
435.184	0
435.544	0.0003
435.904	0.001
436.264	0.0006
436.624	-0.0002
436.985	0.0004
437.345	0.0011
437.704	0.0005
438.064	-0.001
438.424	-0.0001
438.784	-0.0001
439.144	0.001
439.504	-0.0001
439.863	-0.0006
440.223	-0.0018
440.583	-0.0043
440.942	-0.0036
441.302	-0.0026
441.661	0.0002
442.021	0.0006
442.38	0.0008
442.739	0.0009
443.099	0.0036
443.458	0.0022
443.817	0.0033
444.176	0.0024
444.536	0.0014
444.895	-0.0008
445.254	-0.0022
445.613	-0.0003
445.972	-0.0006
446.331	-0.0013
446.69	-0.0024
447.049	-0.0017
447.407	-0.0011
447.766	0.0017
448.125	0.0044
448.484	0.0036
448.842	0.0008
449.201	-0.002
449.559	-0.0016
449.918	-0.0009
450.276	-0.0021
450.635	-0.0018
450.993	-0.0013
451.352	-0.0011
451.71	0.0015
452.068	0.0011
452.426	0.0017
452.785	-0.0025
453.143	-0.0044
453.501	-0.0046
453.859	-0.0031
454.217	-0.0014
454.575	-0.0009
454.933	-0.0021
455.291	-0.0018
455.649	-0.0024
456.006	0.0003
456.364	0.0005
456.722	-0
457.079	-0.0016
457.437	-0.0031
457.795	-0.001
458.152	0.0004
458.51	0.0007
458.867	0.0005
459.225	-0.0009
459.582	-0.0001
459.939	-0.0013
460.297	-0.0019
460.654	-0.0025
461.011	-0.0022
461.368	-0.0007
461.725	0.0006
462.082	0.0023
462.44	0.0025
462.797	0.0015
463.153	-0.0005
463.51	-0.0013
463.867	-0.0008
464.224	-0.0019
464.581	-0.0028
464.938	-0.0027
465.294	-0.0014
465.651	-0.0018
466.008	-0.0015
466.364	-0.0026
466.721	-0.0004
467.077	-0.0018
467.434	-0.0011
467.79	-0.002
468.146	-0.0007
468.503	0.0008
468.859	0.0011
469.215	0.001
469.571	-0.0005
469.927	-0.0001
470.284	0.0009
470.64	0.0018
470.996	0.0036
471.352	0.0002
471.707	-0.0006
472.063	-0.002
472.419	-0.0002
472.775	0.001
473.131	-0.0019
473.486	-0.0018
473.842	-0.0018
474.198	0.0011
474.553	-0.0001
474.909	-0.0031
475.264	-0.0059
475.62	-0.0045
475.975	-0.0019
476.331	-0.0005
476.686	-0.0027
477.041	-0.0027
477.396	-0.0017
477.752	-0.0006
478.107	-0.001
478.462	-0.0021
478.817	-0.001
479.172	-0.0007
479.527	-0.0019
479.882	-0.0032
480.237	-0.0028
480.591	-0.0036
480.946	-0.0027
481.301	-0.0019
481.656	-0.001
482.01	-0.0013
482.365	-0.0008
482.72	0.0029
483.074	0.0032
483.429	-0.0006
483.783	-0.0022
484.137	-0.0015
484.492	0.0003
484.846	-0.0013
485.2	-0.0028
485.555	-0.0017
485.909	0.0011
486.263	0.0024
486.617	0.002
486.971	0
487.325	0
487.679	-0.0001
488.033	-0
488.387	-0.0018
488.741	-0.0019
489.094	0.0002
489.448	0.0022
489.802	0.0029
490.156	-0.0003
490.509	-0.001
490.863	-0.0023
491.216	-0.0032
491.57	-0.0046
491.923	-0.0028
492.277	-0.0018
492.63	-0.0025
492.983	-0.0038
493.337	-0.0038
493.69	-0.0022
494.043	-0.0015
494.396	-0.0003
494.749	-0.0007
495.102	0.0005
495.455	0.0004
495.808	-0.0004
496.161	-0.0022
496.514	-0.0008
496.867	0.0004
497.22	-0.0018
497.572	-0.004
497.925	-0.0044
498.278	-0.0011
498.63	-0.0015
498.983	-0.0002
499.335	-0.0012
499.688	-0.0003
500.04	0.0012
500.393	-0.0008
500.745	-0.001
501.097	-0.0027
501.449	-0.0034
501.802	-0.0019
502.154	-0.0006
502.506	0.0017
502.858	-0.0019
503.21	-0.0047
503.562	-0.0039
503.914	-0.0001
504.266	0.0008
504.618	-0.0016
504.969	-0.0026
505.321	-0.0039
505.673	-0.0026
506.025	-0.0007
506.376	0.0021
506.728	0.0008
507.079	-0.0022
507.431	-0.0042
507.782	-0.0036
508.134	-0.0036
508.485	-0.0021
508.836	0.0001
509.188	0.0013
509.539	0.0001
509.89	-0.0011
510.241	-0.0024
510.592	-0.0001
510.943	-0.0015
511.294	0.0007
511.645	-0.0029
511.996	-0.0007
512.347	-0.0027
512.698	-0.0024
513.049	-0.0062
513.399	-0.0055
513.75	-0.0045
514.101	-0.0035
514.451	-0.005
514.802	-0.0052
515.152	-0.0019
515.503	-0.0011
515.853	0.0009
516.203	-0.0005
516.554	0.0005
516.904	-0.0005
517.254	-0
517.604	-0.0017
517.955	-0.0024
518.305	-0.0024
518.655	-0.0001
519.005	-0.002
519.355	-0.0025
519.705	-0.005
520.055	-0.0034
520.404	-0.0045
520.754	-0.0029
521.104	-0.0024
521.454	-0.0009
521.803	-0.0008
522.153	-0.0011
522.502	-0.0028
522.852	-0.0039
523.201	-0.0042
523.551	-0.0046
523.9	-0.0039
524.249	-0.0031
524.599	-0.0048
524.948	-0.0073
525.297	-0.0083
525.646	-0.0066
525.995	-0.0043
526.344	-0.0032
526.694	-0.0017
527.042	-0.0007
527.391	-0.0044
527.74	-0.0056
528.089	-0.0087
528.438	-0.0054
528.787	-0.0045
529.135	-0.0038
529.484	-0.0053
529.833	-0.0057
530.181	-0.006
530.53	-0.0059
530.878	-0.005
531.227	-0.0047
531.575	-0.0035
531.923	-0.0035
532.271	-0.0028
532.62	-0.0039
532.968	-0.0048
533.316	-0.0032
533.664	-0.0035
534.012	-0.004
534.36	-0.0042
534.708	-0.0048
535.056	-0.0026
535.404	0.0005
535.752	0.0045
536.1	0.0027
536.447	-0.0005
536.795	-0.0029
537.143	-0.0013
537.49	-0.001
537.838	-0.0004
538.185	-0.0005
538.533	-0.0007
538.88	-0.0006
539.228	-0.0015
539.575	0.0001
539.922	-0.0008
540.269	0.0007
540.617	-0.0032
540.964	-0.0009
541.311	-0.001
541.658	0.0024
542.005	-0.0005
542.352	-0.0018
542.699	-0.0026
543.045	-0.004
543.392	-0.0035
543.739	-0.0056
544.086	-0.0021
544.432	-0.0019
544.779	0.0004
545.126	-0.0001
545.472	0.0001
545.819	0.0003
546.165	0.0007
546.512	-0.0019
546.858	-0.0028
547.204	-0.0055
547.55	-0.005
547.897	-0.0042
548.243	-0.0038
548.589	-0.0024
548.935	-0.003
549.281	-0.0026
549.627	-0.0015
549.973	-0.002
550.319	-0.0019
550.665	0.0004
551.01	-0.0004
551.356	-0.0003
551.702	-0.0043
552.048	-0.0022
552.393	-0.0024
552.739	-0.0037
553.084	-0.0049
553.43	-0.0047
553.775	-0.002
554.12	-0.0017
554.466	-0.001
554.811	-0.0047
555.156	-0.0047
555.502	-0.0041
555.847	0.0002
556.192	-0.0002
556.537	-0.0014
556.882	-0.0035
557.227	-0.0056
557.572	-0.0041
557.917	-0.0046
558.261	-0.0009
558.606	-0.0012
558.951	-0.0014
559.295	-0.003
559.64	-0.0039
559.985	-0.0032
560.329	-0.0037
560.674	-0.0045
561.018	-0.0071
561.363	-0.008
561.707	-0.0075
562.051	-0.0037
562.395	-0.0021
562.74	0.0004
563.084	-0.0022
563.428	-0.0019
563.772	-0.0037
564.116	-0.0013
564.46	-0.0001
564.804	0.0004
565.148	-0.0009
565.492	-0.0018
565.835	-0.0005
566.179	0.0024
566.523	0.0003
566.866	-0.005
567.21	-0.0089
567.554	-0.0094
567.897	-0.0025
568.24	-0.0014
568.584	-0.0033
568.927	-0.0057
569.271	-0.0055
569.614	-0.0052
569.957	-0.0023
570.3	-0.0029
570.643	-0.0008
570.986	-0.0025
571.329	-0.0014
571.672	-0.0001
572.015	-0.0028
572.358	-0.0047
572.701	-0.0058
573.044	-0.0063
573.387	-0.0046
573.729	-0.0039
574.072	-0.0019
574.414	-0.0008
574.757	0
575.099	-0.0009
575.442	-0.0013
575.784	-0.0025
576.127	-0.0031
576.469	-0.0039
576.811	-0.0027
577.153	-0.0012
577.496	-0.0009
577.838	-0.0014
578.18	-0.0021
578.522	-0.0023
578.864	-0.0059
579.206	-0.0041
579.548	-0.0049
579.889	-0.0035
580.231	-0.0031
580.573	0.0006
580.915	0.0004
581.256	-0.0031
581.598	-0.0062
581.939	-0.0072
582.281	-0.0038
582.622	-0.0043
582.964	-0.0042
583.305	-0.0037
583.646	-0.0033
583.988	-0.0003
584.329	-0.0023
584.67	-0.0029
585.011	-0.0055
585.352	-0.0058
585.693	-0.0039
586.034	-0.0032
586.375	-0.0063
586.716	-0.0058
587.057	-0.0037
587.398	0.0024
587.738	0.0017
588.079	-0.0009
588.42	-0.0024
588.76	-0.0034
589.101	-0.0032
589.441	-0.002
589.782	-0.0047
590.122	-0.0024
590.463	-0.003
590.803	-0.0022
591.143	-0.0024
591.483	-0.0038
591.823	-0.0026
592.164	-0.004
592.504	-0.0047
592.844	-0.0039
593.184	-0.0026
593.523	-0.0023
593.863	-0.0036
594.203	-0.0032
594.543	0.0005
594.883	-0.0008
595.222	-0.0013
595.562	-0.0036
595.901	-0.0021
596.241	-0.0035
596.58	-0.0037
596.92	-0.0047
597.259	-0.0045
597.599	-0.004
597.938	-0.0044
598.277	-0.0064
598.616	-0.0094
598.955	-0.0075
599.295	-0.0049
599.634	-0.0004
599.973	-0.001
600.312	-0.0011
600.65	-0.0031
600.989	-0.003
601.328	-0.002
601.667	-0.0008
602.005	-0.0053
602.344	-0.0079
602.683	-0.0073
603.021	-0.004
603.36	-0.002
603.698	-0.0038
604.037	-0.003
604.375	-0.0015
604.713	-0.0026
605.052	-0.0045
605.39	-0.0039
605.728	-0.0015
606.066	0.002
606.404	-0.0015
606.742	-0.0022
607.08	-0.0041
607.418	-0.0049
607.756	-0.0034
608.094	-0.0007
608.431	-0.0016
608.769	-0.0024
609.107	-0.0058
609.444	-0.0034
609.782	-0.0037
610.12	0.0005
610.457	-0.0015
610.794	-0.002
611.132	-0.0053
611.469	-0.0047
611.806	-0.0068
612.144	-0.0079
612.481	-0.0044
612.818	-0.0006
613.155	0.0023
613.492	0.0024
613.829	0.0008
614.166	0.0002
614.503	-0.0031
614.84	-0.0039
615.176	-0.0059
615.513	-0.0014
615.85	0.001
616.187	0.0031
616.523	-0.0009
616.86	-0.0027
617.196	-0.0038
617.533	-0.0006
617.869	-0.0003
618.205	-0.0007
618.542	-0.0019
618.878	-0.004
619.214	-0.0039
619.55	-0.0072
619.886	-0.0041
620.222	-0.0047
620.558	-0.0014
620.894	-0.0025
621.23	-0.003
621.566	-0.0045
621.902	-0.0041
622.238	-0.0034
622.573	-0.0051
622.909	-0.0074
623.244	-0.0089
623.58	-0.0087
623.916	-0.0062
624.251	-0.0055
624.586	-0.0037
624.922	-0.004
625.257	-0.0049
625.592	-0.0038
625.927	-0.0022
626.263	-0.001
626.598	-0.0015
626.933	-0.0024
627.268	-0.0001
627.603	-0.0018
627.938	-0.0046
628.272	-0.0064
628.607	-0.0066
628.942	-0.0033
629.277	-0.005
629.611	-0.0064
629.946	-0.0063
630.281	-0.0034
630.615	-0.0028
630.949	-0.0062
631.284	-0.004
631.618	-0.0007
631.953	0.0004
632.287	-0.0038
632.621	-0.0068
632.955	-0.0066
633.289	-0.0031
633.623	-0.0031
633.957	-0.0004
634.291	-0.0047
634.625	-0.0028
634.959	-0.0066
635.293	-0.0034
635.627	-0.0016
635.96	-0.0017
636.294	-0.0032
636.627	-0.0058
636.961	-0.0009
637.294	-0.0042
637.628	-0.0049
637.961	-0.0083
638.295	-0.0077
638.628	-0.0071
638.961	-0.0113
639.294	-0.0103
639.628	-0.0107
639.961	-0.0078
640.294	-0.0125
640.627	-0.0107
640.96	-0.009
641.293	-0.0049
641.625	-0.0058
641.958	-0.0037
642.291	-0.0045
642.624	-0.005
642.956	-0.0043
643.289	0.0003
643.621	0.0002
643.954	-0.0048
644.286	-0.0043
644.619	-0.0046
644.951	-0.0043
645.283	-0.0035
645.616	-0.0054
645.948	-0.002
646.28	-0.005
646.612	-0.0044
646.944	-0.0052
647.276	-0.0064
647.608	-0.0089
647.94	-0.0086
648.272	-0.0102
648.603	-0.0043
648.935	-0.0071
649.267	0.0009
649.598	-0.0031
649.93	-0.0001
650.261	-0.005
650.593	-0.0047
650.924	-0.0064
651.256	-0.0065
651.587	-0.0059
651.918	-0.0028
652.25	-0.0016
652.581	0.0007
652.912	-0.0039
653.243	-0.0069
653.574	-0.0095
653.905	-0.0023
654.236	-0.0013
654.567	-0.0017
654.897	-0.006
655.228	-0.0029
655.559	-0.0025
655.89	-0.0033
656.22	-0.0035
656.551	-0.0066
656.881	-0.0056
657.212	-0.0069
657.542	-0.0055
657.872	-0.0053
658.203	-0.0059
658.533	0.0092
658.863	0.0038
659.193	-0.0015
659.523	-0.0057
659.853	-0.0101
660.183	-0.0043
660.513	-0.0045
660.843	-0.002
661.173	-0.001
661.503	0.0002
661.833	-0.0051
662.162	-0.0069
662.492	-0.007
662.822	-0.0061
663.151	-0.0073
663.481	-0.0076
663.81	-0.0043
664.139	-0.0039
664.469	-0.0016
664.798	0.0011
665.127	-0.0011
665.456	0.001
665.785	-0.006
666.114	-0.0029
666.443	-0.0051
666.772	-0.0049
667.101	-0.006
667.43	-0.0087
667.759	-0.0043
668.088	-0.0079
668.416	-0.0085
668.745	-0.0108
669.074	-0.0058
669.402	-0.003
669.731	-0.0026
670.059	-0.0038
670.388	-0.0017
670.716	0.0018
671.044	-0.0009
671.372	-0.0042
671.701	-0.0016
672.029	0.0025
672.357	0.0032
672.685	0.0003
673.013	-0.0029
673.341	-0.004
673.669	-0.008
673.996	-0.0036
674.324	0.0022
674.652	0.0047
674.98	0.0033
675.307	0.0014
675.635	0.0021
675.962	0.0001
676.29	0.0004
676.617	-0.0042
676.945	-0.001
677.272	-0.005
677.599	0.0013
677.926	0.0029
678.253	0.0018
678.581	-0.0048
678.908	-0.0078
679.235	-0.0076
679.561	-0.0091
679.888	-0.0097
680.215	-0.0058
680.542	-0.0069
680.869	-0.0042
681.195	-0.0061
681.522	0.0005
681.849	-0.0028
682.175	-0.0048
682.502	-0.0036
682.828	-0.0033
683.154	-0.0022
683.481	-0.0067
683.807	-0.0053
684.133	-0.0068
684.459	-0.0128
684.785	-0.0132
685.111	-0.0113
685.437	-0.0072
685.763	-0.0118
686.089	-0.0113
686.415	-0.0077
686.741	-0.0023
687.067	-0.0021
687.392	-0.0069
687.718	-0.0101
688.043	-0.0103
688.369	-0.0033
688.694	0.0016
689.02	0.0002
689.345	-0.0029
689.67	-0.0062
689.996	-0.0061
690.321	-0.0029
690.646	-0.0036
690.971	-0.0016
691.296	-0.0029
691.621	-0.0005
691.946	-0.0021
692.271	-0.0047
692.596	-0.0054
692.921	-0.0015
693.245	0.0018
693.57	-0.0002
693.895	-0.0011
694.219	-0.0038
694.544	-0.001
694.868	-0.0033
695.193	-0.0039
695.517	-0.004
695.841	-0.0049
696.166	-0.0044
696.49	-0.0056
696.814	-0.0037
697.138	-0.0035
697.462	-0.0003
697.786	-0.0028
698.11	-0.0016
698.434	-0.0057
698.758	-0.005
699.081	-0.0069
699.405	-0.005
699.729	-0.0045
700.052	-0.0045
700.376	-0.0089
700.7	-0.0095
701.023	-0.0095
701.346	-0.0066
701.67	-0.0048
701.993	-0.0056
702.316	-0.0056
702.639	-0.0088
702.963	-0.0091
703.286	-0.0104
703.609	-0.0002
703.932	0.0036
704.255	0.008
704.578	-0.0013
704.9	0.0005
705.223	-0.0012
705.546	0.0003
705.868	-0.002
706.191	0.0002
706.514	-0.0041
706.836	-0.0044
707.159	-0.0072
707.481	-0.0029
707.803	-0.0031
708.126	-0.0033
708.448	-0.0017
708.77	0.0009
709.092	0.001
709.414	0.0021
709.736	-0.0013
710.058	-0.002
710.38	-0.0003
710.702	-0.0009
711.024	0.0016
711.345	-0.0023
711.667	-0.0002
711.989	-0.0069
712.31	-0.0094
712.632	-0.0158
712.953	-0.0109
713.275	-0.0063
713.596	-0.0043
713.917	-0.0061
714.239	-0.0072
714.56	-0.0055
714.881	-0.0055
715.202	-0.0026
715.523	0.0025
715.844	0.0057
716.165	0.0025
716.486	0.0009
716.807	-0.0047
717.128	-0.0065
717.448	-0.0082
717.769	-0.0088
718.09	-0.0089
718.41	-0.0127
718.731	-0.0108
719.051	-0.0118
719.372	-0.0087
719.692	-0.0053
720.012	-0.0022
720.332	-0.0061
720.653	-0.0096
720.973	-0.011
721.293	-0.0093
721.613	-0.0079
721.933	-0.0083
722.253	-0.0044
722.573	-0.0045
722.892	-0.0084
723.212	-0.0097
723.532	-0.0107
723.851	-0.0084
724.171	-0.0095
724.491	-0.0108
724.81	-0.0092
725.129	-0.0085
725.449	-0.0058
725.768	-0.0036
726.087	-0.0046
726.407	-0.0069
726.726	-0.0037
727.045	-0.0055
727.364	-0.0025
727.683	-0.0056
728.002	-0.0058
728.321	-0.0052
728.64	-0.0069
728.958	-0.0052
729.277	-0.0084
729.596	-0.0126
729.914	-0.0201
730.233	-0.0199
730.551	-0.0172
730.87	-0.0072
731.188	-0.005
731.507	-0.0012
731.825	-0.0065
732.143	-0.0064
732.461	-0.0064
732.779	-0.0011
733.097	-0.0046
733.415	-0.0039
733.733	-0.0043
734.051	-0.0006
734.369	-0.0015
734.687	-0.0047
735.005	-0.0065
735.322	-0.0048
735.64	-0.0014
735.957	-0.0005
736.275	-0.0023
736.592	-0.0053
736.91	-0.01
737.227	-0.0079
737.544	-0.0049
737.862	0.0009
738.179	-0.0014
738.496	0.001
738.813	-0.0035
739.13	-0.0025
739.447	-0.0103
739.764	-0.0071
740.081	-0.0099
740.398	-0.0062
740.714	-0.0106
741.031	-0.0099
741.348	-0.0135
741.664	-0.0067
741.981	-0.0025
742.297	0.0002
742.614	-0.0008
742.93	-0.0061
743.246	-0.0073
743.563	-0.0156
743.879	-0.018
744.195	-0.0179
744.511	-0.015
744.827	-0.0105
745.143	-0.0078
745.459	-0.0056
745.775	-0.0078
746.091	-0.012
746.406	-0.0163
746.722	-0.009
747.038	-0.0042
747.353	0.002
747.669	-0.0095
747.984	-0.0104
748.3	-0.0111
748.615	-0.0052
748.93	-0.0038
749.246	0.0011
749.561	0.0015
749.876	-0.004
750.191	-0.0096
750.506	-0.0099
750.821	-0.0068
751.136	-0.0088
751.451	-0.0061
751.766	-0.001
752.08	-0.0022
752.395	-0.003
752.71	-0.0088
753.024	0.0005
753.339	0.003
753.653	0.0056
753.968	-0.0042
754.282	-0.0113
754.596	-0.0131
754.911	-0.007
755.225	-0.0022
755.539	0.0017
755.853	-0.003
756.167	-0.0097
756.481	-0.0087
756.795	-0.0076
757.109	-0.0052
757.423	-0.0062
757.736	-0.0079
758.05	-0.0062
758.364	-0.0063
758.677	0.0013
758.991	0.002
759.304	-0.0011
759.618	-0.0033
759.931	-0.0081
760.244	-0.0065
760.558	-0.0045
760.871	-0.0019
761.184	-0.0032
761.497	-0.0084
761.81	-0.0084
762.123	-0.004
762.436	-0.0023
762.749	0.0011
763.062	-0.0052
763.374	-0.0044
763.687	-0.0079
764	-0.0048
764.312	-0.0037
764.625	-0.0033
764.937	-0.0033
765.25	-0.0064
765.562	-0.0078
765.874	-0.0103
766.186	-0.0079
766.499	-0.0034
766.811	-0.0006
767.123	-0.0051
767.435	-0.0064
767.747	-0.0047
768.059	-0.0037
768.37	-0.0011
768.682	-0.0077
768.994	-0.0063
769.306	-0.0118
769.617	-0.0094
769.929	-0.0114
770.24	-0.0055
770.552	-0.002
770.863	-0.0005
771.174	-0.0069
771.486	-0.0078
771.797	-0.0108
772.108	-0.0113
772.419	-0.0081
772.73	-0.0045
773.041	-0.0046
773.352	-0.008
773.663	-0.0077
773.974	-0.0063
774.285	-0.01
774.595	-0.0144
774.906	-0.014
775.217	-0.0113
775.527	-0.0081
775.838	-0.0067
776.148	-0.0044
776.458	-0.0008
776.769	-0.0042
777.079	-0.0101
777.389	-0.0165
777.699	-0.0117
778.009	-0.0085
778.319	-0.0046
778.629	-0.0004
778.939	-0.0027
779.249	-0.0011
779.559	-0.0062
779.869	-0.0052
780.178	-0.0104
780.488	-0.0167
780.798	-0.0146
781.107	-0.0151
781.417	-0.0085
781.726	-0.0053
782.035	0.0009
782.345	-0.0027
782.654	-0.0053
782.963	-0.0096
783.272	-0.0065
783.581	0.001
783.89	-0.0019
784.199	-0.0029
784.508	-0.0094
784.817	-0.0066
785.126	-0.0083
785.434	-0.0083
785.743	-0.0073
786.052	-0.0017
786.36	0.002
786.669	0.0041
786.977	0.0048
787.285	0.0028
787.594	-0.0008
787.902	-0.0056
788.21	-0.0104
788.518	-0.0127
788.826	-0.0117
789.135	-0.007
789.442	-0.0043
789.75	-0.003
790.058	-0.0036
790.366	-0.0063
790.674	-0.0067
790.981	-0.0112
791.289	-0.0084
791.597	-0.0062
791.904	-0.006
792.212	-0.0067
792.519	-0.0135
792.826	-0.0145
793.134	-0.0071
793.441	-0.0058
793.748	-0.0044
794.055	-0.0092
794.362	-0.0054
794.669	-0.0071
794.976	-0.0065
795.283	-0.0073
795.59	0.0025
795.897	-0.0002
796.203	0.0061
796.51	0.0016
796.817	-0.002
797.123	-0.0042
797.43	-0.0055
797.736	-0.0022
798.042	-0.0049
798.349	-0.0074
798.655	-0.0065
798.961	-0.0065
799.267	0
799.573	-0.0059
799.879	-0.0006
800.185	-0.004
800.491	0.0052
800.797	-0.0086
801.103	-0.0075
801.408	-0.0125
801.714	-0.0099
802.02	-0.009
802.325	-0.0095
802.631	-0.007
802.936	-0.0183
803.242	-0.0243
803.547	-0.0228
803.852	-0.0121
804.157	-0.0049
804.462	-0.0009
804.768	-0.0004
805.073	-0.004
805.378	-0.0077
805.682	-0.0089
805.987	-0.0091
806.292	-0.0045
806.597	-0.002
806.902	0.0015
807.206	-0.0005
807.511	-0.0019
807.815	0.0006
808.12	-0.0004
808.424	-0.001
808.728	-0.0069
809.033	-0.0032
809.337	-0.0091
809.641	-0.0066
809.945	-0.0153
810.249	-0.0158
810.553	-0.0107
810.857	-0.0031
811.161	0.0011
811.465	-0.0045
811.768	-0.014
812.072	-0.0104
812.376	-0.008
812.679	0.0009
812.983	-0.0027
813.286	-0.0142
813.59	-0.0187
813.893	-0.0178
814.196	-0.0088
814.499	-0.0153
814.803	-0.0173
815.106	-0.0087
815.409	0.0045
815.712	0.0125
816.015	0.0048
816.318	0.0013
816.62	0.0005
816.923	-0.002
817.226	-0.0035
817.528	-0.01
817.831	-0.013
818.133	-0.0149
818.436	-0.0156
818.738	-0.0111
819.041	-0.0049
819.343	0.0084
819.645	0.0043
819.947	0.0071
820.249	0.0026
820.551	0.01
820.853	0.0035
821.155	-0.0078
821.457	-0.0112
821.759	-0.0071
822.061	-0.005
822.362	-0.0074
822.664	-0.0045
822.966	-0.0087
823.267	-0.0016
823.569	-0.0121
823.87	-0.0052
824.171	-0.0173
824.473	-0.0159
824.774	-0.0232
825.075	-0.0118
825.376	-0.0134
825.677	-0.01
825.978	-0.0134
826.279	-0.0049
826.58	-0.0106
826.881	-0.0168
827.181	-0.0222
827.482	-0.0116
827.783	-0.0022
828.083	-0.0049
828.384	-0.0132
828.684	-0.017
828.985	-0.0234
829.285	-0.0259
829.585	-0.0205
829.885	-0.0088
830.185	-0.0024
830.486	0.0029
830.786	0.0075
831.086	-0.0022
831.385	-0.0099
831.685	-0.0205
831.985	-0.0102
832.285	-0.0039
832.585	0.0057
832.884	0.0055
833.184	-0.0002
833.483	-0.0105
833.783	-0.0093
834.082	-0.0162
834.381	-0.0126
834.681	-0.0096
834.98	-0.0025
835.279	-0.0041
835.578	-0.0059
835.877	-0.0023
836.176	-0.0057
836.475	-0.0001
836.774	-0.0177
837.072	-0.0141
837.371	-0.0202
837.67	-0.017
837.968	-0.0096
838.267	-0.0042
838.565	-0.0058
838.864	-0.0014
839.162	-0.0112
839.46	0.002
839.759	-0.011
840.057	-0.0053
840.355	-0.0048
840.653	-0.0029
840.951	0.002
841.249	0.0063
841.547	0.0019
841.845	0.0038
842.142	-0.0088
842.44	-0.0047
842.738	-0.0178
843.035	-0.0141
843.333	-0.0137
843.63	-0.014
843.928	-0.015
844.225	-0.0169
844.522	-0.0135
844.82	-0.0237
845.117	-0.0243
845.414	-0.0254
845.711	-0.0247
846.008	-0.0223
846.305	-0.0163
846.602	-0.007
846.898	0.0025
847.195	-0.0042
847.492	0.0029
847.788	-0.005
848.085	0.0028
848.382	-0.0037
848.678	-0.0041
848.974	-0.0051
849.271	-0.0094
849.567	-0.0285
849.863	-0.0261
850.159	-0.0122
850.455	0.0089
850.751	0.0059
851.047	-0.0173
851.343	-0.0278
851.639	-0.0393
851.935	-0.0333
852.23	-0.0343
852.526	-0.0322
852.822	-0.0242
853.117	-0.0186
853.413	-0.0172
853.708	-0.0289
854.003	-0.0259
854.299	-0.0116
854.594	-0.0167
854.889	-0.023
855.184	-0.0297
855.479	-0.021
855.774	-0.0249
856.069	-0.028
856.364	-0.0236
856.659	-0.0247
856.954	-0.0295
857.248	-0.0267
857.543	-0.0238
857.837	-0.0223
858.132	-0.0082
858.426	-0.0011
858.721	0.011
859.015	0.0111
859.309	0.0264
859.604	0.0109
859.898	0.0128
860.192	0.0065
860.486	0.0157
860.78	-0.0059
861.074	-0.0203
861.367	-0.0111
861.661	0.0019
861.955	0.0058
862.248	0.0119
862.542	0.0111
862.836	0.0184
863.129	0.0083
863.422	-0.0075
863.716	-0.02
864.009	-0.0246
864.302	-0.0266
864.595	-0.0145
864.889	-0.0165
865.182	0.0028
865.475	-0.0083
865.767	-0.0147
866.06	-0.0222
866.353	-0.0129
866.646	-0.0413
866.938	-0.0362
867.231	-0.0195
867.524	0.0146
867.816	0.0151
868.109	-0.0162
868.401	-0.0265
868.693	-0.0436
868.985	-0.0231
869.278	-0.0065
869.57	0.0287
869.862	0.0169
870.154	0.0159
870.446	-0.0004
870.738	0.0079
871.029	-0.0161
871.321	-0.0141
871.613	-0.0138
871.904	-0.0021
872.196	-0.01
872.487	-0.0156
872.779	-0.01
873.07	-0.0022
873.362	-0.0042
873.653	-0.0363
873.944	-0.0455
874.235	-0.0451
874.526	0.0061
874.817	0.027
875.108	0.0222
875.399	-0.0032
875.69	-0.0338
875.981	-0.0431
876.271	-0.0479
876.562	-0.0316
876.853	-0.0126
877.143	-0.0156
877.434	-0.0312
877.724	-0.05
878.014	-0.029
878.305	-0.0115
878.595	0.0017
878.885	-0.0125
879.175	-0.0245
879.465	-0.0078
879.755	-0.0115
880.045	-0.0157
880.335	-0.0477
880.624	-0.0499
880.914	-0.0499
