Data from 45SS03BU-alt2-2_080317_1b_Absorbance_15-18-33-866.txt Node
Date: Sun Aug 06 15:18:33 MDT 2017
User: Tank Lab
Spectrometer: FLMS01220
Trigger mode: 0
Integration Time (sec): 1.000000E-1
Scans to average: 10
Electric dark correction enabled: true
Nonlinearity correction enabled: false
Boxcar width: 1
XAxis mode: Wavelengths
Number of Pixels in Spectrum: 2048
>>>>>Begin Spectral Data<<<<<
179.47	-0.2065
179.856	-0.2065
180.241	-0.1287
180.626	0.184
181.011	-0
181.396	1.0758
181.781	-0.5871
182.166	-0.0385
182.551	0.2384
182.936	-0
183.321	-0
183.706	-0.747
184.091	-0
184.476	-0
184.86	-0.1714
185.245	-0.6845
185.63	0.0979
186.015	-0.0085
186.399	-0.201
186.784	-0.2531
187.169	0.0877
187.553	0.1963
187.938	-0
188.322	-0.102
188.707	-0.0316
189.091	-0.0147
189.475	0.0117
189.86	0.0623
190.244	0.1159
190.629	0.1705
191.013	0.1933
191.397	0.2227
191.781	0.2644
192.165	0.2986
192.55	0.3404
192.934	0.3584
193.318	0.3998
193.702	0.4325
194.086	0.4658
194.47	0.4647
194.854	0.4528
195.238	0.4353
195.622	0.4263
196.006	0.4176
196.389	0.4086
196.773	0.3921
197.157	0.3675
197.541	0.3478
197.924	0.332
198.308	0.3196
198.692	0.304
199.075	0.286
199.459	0.2707
199.843	0.2488
200.226	0.2302
200.61	0.2121
200.993	0.2018
201.376	0.1951
201.76	0.1899
202.143	0.1795
202.527	0.1707
202.91	0.1628
203.293	0.1583
203.676	0.1505
204.059	0.1448
204.443	0.1355
204.826	0.1292
205.209	0.1238
205.592	0.1251
205.975	0.1249
206.358	0.1229
206.741	0.119
207.124	0.1182
207.507	0.1215
207.89	0.1194
208.273	0.1149
208.655	0.1091
209.038	0.1086
209.421	0.1097
209.804	0.1076
210.186	0.1088
210.569	0.1081
210.951	0.1073
211.334	0.1039
211.717	0.1013
212.099	0.1009
212.482	0.0983
212.864	0.0976
213.246	0.0971
213.629	0.0949
214.011	0.0945
214.393	0.0937
214.776	0.0951
215.158	0.0914
215.54	0.0904
215.922	0.0911
216.305	0.0912
216.687	0.0884
217.069	0.0841
217.451	0.0816
217.833	0.0786
218.215	0.0787
218.597	0.0774
218.979	0.0767
219.361	0.0714
219.742	0.0724
220.124	0.0733
220.506	0.0752
220.888	0.0744
221.27	0.0702
221.651	0.0688
222.033	0.0645
222.415	0.0635
222.796	0.0614
223.178	0.0629
223.559	0.062
223.941	0.0604
224.322	0.0593
224.704	0.0583
225.085	0.0585
225.466	0.0548
225.848	0.0538
226.229	0.0513
226.61	0.0504
226.992	0.0497
227.373	0.0497
227.754	0.0502
228.135	0.0487
228.516	0.0483
228.897	0.0483
229.278	0.0468
229.659	0.0471
230.04	0.0446
230.421	0.0432
230.802	0.0411
231.183	0.0405
231.564	0.0414
231.944	0.0405
232.325	0.0388
232.706	0.0368
233.087	0.0342
233.467	0.0345
233.848	0.0344
234.229	0.0337
234.609	0.0324
234.99	0.0327
235.37	0.0331
235.751	0.0342
236.131	0.0326
236.511	0.0317
236.892	0.0302
237.272	0.0311
237.652	0.0302
238.033	0.0295
238.413	0.0282
238.793	0.0295
239.173	0.029
239.553	0.0287
239.933	0.027
240.313	0.0258
240.694	0.0255
241.074	0.0273
241.453	0.0284
241.833	0.0275
242.213	0.0261
242.593	0.0252
242.973	0.0268
243.353	0.0265
243.732	0.0267
244.112	0.0241
244.492	0.0235
244.872	0.0222
245.251	0.024
245.631	0.0236
246.01	0.0241
246.39	0.0236
246.769	0.024
247.149	0.0235
247.528	0.0233
247.908	0.0241
248.287	0.0243
248.666	0.0239
249.045	0.0235
249.425	0.0235
249.804	0.022
250.183	0.0203
250.562	0.0206
250.941	0.0219
251.32	0.0227
251.699	0.0221
252.078	0.0218
252.457	0.0209
252.836	0.0207
253.215	0.0206
253.594	0.0206
253.973	0.02
254.352	0.0195
254.731	0.0195
255.109	0.0203
255.488	0.0205
255.867	0.021
256.245	0.0198
256.624	0.0193
257.002	0.0195
257.381	0.0194
257.759	0.0203
258.138	0.0197
258.516	0.0202
258.895	0.0196
259.273	0.0202
259.651	0.0201
260.03	0.0194
260.408	0.019
260.786	0.0196
261.164	0.021
261.542	0.02
261.921	0.0186
262.299	0.018
262.677	0.0192
263.055	0.0182
263.433	0.0178
263.811	0.0175
264.188	0.02
264.566	0.0198
264.944	0.0192
265.322	0.0173
265.7	0.0169
266.077	0.0171
266.455	0.0197
266.833	0.0213
267.21	0.0209
267.588	0.0192
267.966	0.0185
268.343	0.0185
268.721	0.0173
269.098	0.0168
269.475	0.0182
269.853	0.0205
270.23	0.0198
270.607	0.0186
270.985	0.0177
271.362	0.0177
271.739	0.0178
272.116	0.0177
272.494	0.0183
272.871	0.0178
273.248	0.0167
273.625	0.0163
274.002	0.0175
274.379	0.0182
274.756	0.0182
275.132	0.0175
275.509	0.0175
275.886	0.0178
276.263	0.0183
276.64	0.0187
277.016	0.0192
277.393	0.0185
277.77	0.0171
278.146	0.0164
278.523	0.015
278.899	0.0153
279.276	0.0147
279.652	0.0163
280.029	0.0167
280.405	0.0168
280.782	0.0142
281.158	0.0147
281.534	0.015
281.91	0.0178
282.287	0.0159
282.663	0.016
283.039	0.0147
283.415	0.0172
283.791	0.0183
284.167	0.0195
284.543	0.0189
284.919	0.0166
285.295	0.0144
285.671	0.0147
286.047	0.0165
286.423	0.018
286.799	0.0177
287.174	0.018
287.55	0.0178
287.926	0.0177
288.301	0.0176
288.677	0.0183
289.053	0.0171
289.428	0.0153
289.804	0.0157
290.179	0.0166
290.555	0.0184
290.93	0.018
291.305	0.0185
291.681	0.0179
292.056	0.0184
292.431	0.019
292.806	0.0201
293.182	0.019
293.557	0.0179
293.932	0.0165
294.307	0.0171
294.682	0.0161
295.057	0.0159
295.432	0.0144
295.807	0.015
296.182	0.0148
296.557	0.0157
296.932	0.0168
297.306	0.0179
297.681	0.0169
298.056	0.0149
298.43	0.0154
298.805	0.0159
299.18	0.0174
299.554	0.016
299.929	0.0163
300.303	0.0161
300.678	0.0155
301.052	0.0162
301.427	0.0161
301.801	0.0182
302.175	0.0177
302.55	0.0183
302.924	0.0166
303.298	0.0154
303.672	0.0137
304.046	0.0139
304.421	0.0142
304.795	0.0153
305.169	0.016
305.543	0.0166
305.917	0.0163
306.291	0.0156
306.664	0.0155
307.038	0.0145
307.412	0.0147
307.786	0.0148
308.16	0.0158
308.533	0.015
308.907	0.0144
309.281	0.013
309.654	0.0134
310.028	0.0137
310.401	0.0144
310.775	0.0135
311.148	0.0124
311.522	0.0131
311.895	0.0139
312.268	0.0145
312.642	0.0133
313.015	0.0143
313.388	0.0145
313.761	0.0139
314.135	0.0121
314.508	0.0119
314.881	0.0142
315.254	0.014
315.627	0.0145
316	0.0137
316.373	0.0137
316.746	0.0136
317.118	0.0128
317.491	0.0132
317.864	0.0138
318.237	0.0156
318.61	0.015
318.982	0.0133
319.355	0.0127
319.727	0.0132
320.1	0.0132
320.473	0.0114
320.845	0.0113
321.218	0.0114
321.59	0.0116
321.962	0.0116
322.335	0.0133
322.707	0.0123
323.079	0.0124
323.452	0.0103
323.824	0.0117
324.196	0.0116
324.568	0.012
324.94	0.012
325.312	0.0117
325.684	0.0118
326.056	0.0104
326.428	0.0109
326.8	0.0108
327.172	0.0131
327.544	0.0124
327.915	0.0121
328.287	0.0112
328.659	0.0117
329.031	0.0107
329.402	0.0096
329.774	0.0084
330.145	0.0088
330.517	0.009
330.888	0.0085
331.26	0.0085
331.631	0.0076
332.003	0.0089
332.374	0.0088
332.745	0.0102
333.117	0.0078
333.488	0.0074
333.859	0.0059
334.23	0.0059
334.601	0.0069
334.972	0.006
335.343	0.0077
335.714	0.0064
336.085	0.009
336.456	0.0088
336.827	0.0098
337.198	0.009
337.569	0.0092
337.94	0.0098
338.31	0.0101
338.681	0.0094
339.052	0.0072
339.422	0.0063
339.793	0.0055
340.164	0.0054
340.534	0.0047
340.905	0.0049
341.275	0.0052
341.645	0.006
342.016	0.0073
342.386	0.0069
342.756	0.0054
343.127	0.0062
343.497	0.006
343.867	0.0065
344.237	0.005
344.607	0.0062
344.977	0.0067
345.347	0.0071
345.717	0.0081
346.087	0.0085
346.457	0.008
346.827	0.0049
347.197	0.005
347.567	0.0052
347.936	0.0063
348.306	0.0055
348.676	0.0055
349.046	0.0057
349.415	0.0062
349.785	0.0057
350.154	0.0048
350.524	0.005
350.893	0.0063
351.263	0.0083
351.632	0.0104
352.001	0.0082
352.371	0.0078
352.74	0.0059
353.109	0.0073
353.478	0.0081
353.847	0.0067
354.217	0.0063
354.586	0.0046
354.955	0.0044
355.324	0.0035
355.693	0.004
356.062	0.0054
356.43	0.0066
356.799	0.0044
357.168	0.0037
357.537	0.0036
357.906	0.0052
358.274	0.0063
358.643	0.0053
359.011	0.0045
359.38	0.0042
359.749	0.0039
360.117	0.0027
360.486	0.0009
360.854	0.0004
361.222	0.0013
361.591	0.0028
361.959	0.0019
362.327	0.0029
362.695	0.0023
363.064	0.0029
363.432	0.0022
363.8	0.0043
364.168	0.0049
364.536	0.0063
364.904	0.0054
365.272	0.0059
365.64	0.0068
366.008	0.0051
366.376	0.0031
366.743	0.0012
367.111	0.0028
367.479	0.0058
367.847	0.0059
368.214	0.0048
368.582	0.003
368.949	0.0024
369.317	0.0035
369.684	0.0025
370.052	0.0026
370.419	0.0026
370.787	0.0057
371.154	0.0046
371.521	0.0048
371.889	0.0026
372.256	0.0049
372.623	0.0019
372.99	0.0023
373.357	0.0002
373.724	0.0029
374.091	0.0013
374.458	0.0029
374.825	0.0022
375.192	0.005
375.559	0.0033
375.926	0.0053
376.293	0.0045
376.659	0.0058
377.026	0.0035
377.393	0.0034
377.759	0.0042
378.126	0.0044
378.492	0.0038
378.859	0.0018
379.225	0.0011
379.592	0.001
379.958	0.0023
380.325	0.0037
380.691	0.004
381.057	0.0029
381.423	0.004
381.79	0.0031
382.156	0.0056
382.522	0.0035
382.888	0.0046
383.254	0.0024
383.62	0.0026
383.986	0.0014
384.352	0.0021
384.718	0.0019
385.084	0.0035
385.449	0.0024
385.815	0.0026
386.181	0.0015
386.547	0.0021
386.912	0.0015
387.278	-0.0002
387.643	-0.0005
388.009	-0.001
388.374	0.0016
388.74	0.0025
389.105	0.0039
389.471	0.0041
389.836	0.0035
390.201	0.0041
390.566	0.0049
390.932	0.0047
391.297	0.0038
391.662	0.0023
392.027	0.0017
392.392	0.001
392.757	-0.0009
393.122	-0.0006
393.487	0.0009
393.852	0.0012
394.217	0.0022
394.582	0.0005
394.946	0.0025
395.311	0.003
395.676	0.0036
396.04	0.0021
396.405	0.0006
396.77	0.0001
397.134	0.0003
397.499	0.0002
397.863	0.0015
398.227	0.0015
398.592	0.0035
398.956	0.0039
399.32	0.0045
399.685	0.0034
400.049	0.0028
400.413	0.0028
400.777	0.003
401.141	0.0035
401.505	0.0028
401.869	0.0006
402.233	-0.0001
402.597	0.0004
402.961	0.0019
403.325	0.0009
403.689	0.0002
404.053	0.0009
404.416	0.002
404.78	0.0023
405.144	0.0026
405.507	0.002
405.871	0.0014
406.234	0.0001
406.598	0.0008
406.961	0.0022
407.325	0.0013
407.688	0.0002
408.051	-0.0003
408.415	0.0016
408.778	0.003
409.141	0.0015
409.504	-0.0002
409.867	-0.0006
410.23	-0.0002
410.593	0.0005
410.956	0.0005
411.319	0.0008
411.682	0.0019
412.045	0.0009
412.408	0.0023
412.771	0.0029
413.134	0.0045
413.496	0.0047
413.859	0.0041
414.222	0.0053
414.584	0.0044
414.947	0.0053
415.309	0.0013
415.672	0.0004
416.034	-0.0009
416.396	-0.0009
416.759	0.0007
417.121	0.0001
417.483	0.003
417.846	0.0032
418.208	0.0056
418.57	0.004
418.932	0.0023
419.294	-0.0003
419.656	-0.0002
420.018	0.001
420.38	0.0031
420.742	0.0021
421.104	0.0009
421.466	0.0025
421.827	0.005
422.189	0.006
422.551	0.0028
422.912	0.0026
423.274	0.0023
423.636	0.0019
423.997	-0.0006
424.359	-0.0001
424.72	-0.0005
425.081	0.0003
425.443	-0.0002
425.804	-0.0005
426.165	-0.0004
426.527	-0.0002
426.888	0.0008
427.249	0.0033
427.61	0.0037
427.971	0.0034
428.332	-0.0001
428.693	-0.0003
429.054	0.0016
429.415	0.003
429.776	0.0007
430.137	-0.0008
430.498	-0.0012
430.858	-0.0009
431.219	-0.0013
431.58	0.0015
431.94	0.0039
432.301	0.005
432.661	0.0031
433.022	0.0006
433.382	-0.0011
433.743	-0.0029
434.103	-0.0004
434.463	0.0011
434.824	0.0034
435.184	0.0021
435.544	0.0012
435.904	0.0001
436.264	-0.0002
436.624	0.0006
436.985	0.0025
437.345	0.0049
437.704	0.0041
438.064	0.0036
438.424	0.0007
438.784	0.001
439.144	0.0013
439.504	0.0024
439.863	0.0028
440.223	0.0032
440.583	0.0018
440.942	0.0023
441.302	0.0008
441.661	0.0039
442.021	0.0018
442.38	0.0026
442.739	-0.0013
443.099	0.0013
443.458	-0.0002
443.817	0.0018
444.176	0.0025
444.536	0.002
444.895	0.0021
445.254	0.0001
445.613	0.0004
445.972	-0.0005
446.331	-0.0005
446.69	-0.002
447.049	-0.0004
447.407	-0.0004
447.766	0.0039
448.125	0.005
448.484	0.0055
448.842	0.0031
449.201	-0.0004
449.559	-0.0003
449.918	-0.0001
450.276	0.0013
450.635	0.0001
450.993	-0.0013
451.352	-0.0027
451.71	-0.0003
452.068	0.0016
452.426	0.0038
452.785	0.0012
453.143	0.0018
453.501	0.0011
453.859	0.0023
454.217	0.0005
454.575	0.0002
454.933	0.0004
455.291	0.0016
455.649	0.0004
456.006	0.0006
456.364	-0.0022
456.722	0.0016
457.079	0.0007
457.437	0.0038
457.795	0.0021
458.152	0.004
458.51	0.0029
458.867	0.0038
459.225	0.0008
459.582	0.0019
459.939	0.0022
460.297	0.0043
460.654	0.003
461.011	0.0012
461.368	0.0012
461.725	0.0011
462.082	0.0022
462.44	0.0037
462.797	0.0039
463.153	0.0024
463.51	0.0018
463.867	0.0019
464.224	0.0008
464.581	-0.0009
464.938	-0.0006
465.294	0.0012
465.651	0.0022
466.008	0.0016
466.364	0.0019
466.721	0.0026
467.077	0.0049
467.434	0.005
467.79	0.0037
468.146	0.0016
468.503	0.0014
468.859	0.0012
469.215	0.0022
469.571	0.0035
469.927	0.0059
470.284	0.0063
470.64	0.0051
470.996	0.0041
471.352	0.0018
471.707	0.0002
472.063	-0.0015
472.419	-0.0003
472.775	0.002
473.131	0.0014
473.486	0.0028
473.842	0.0029
474.198	0.0046
474.553	0.0027
474.909	0.0023
475.264	0.0011
475.62	0.0037
475.975	0.0042
476.331	0.005
476.686	0.001
477.041	-0.0018
477.396	-0.0017
477.752	0.0003
478.107	0.0019
478.462	0.0004
478.817	0.001
479.172	0.0016
479.527	0.0025
479.882	0.002
480.237	0.0021
480.591	0.0024
480.946	0.0023
481.301	0.0021
481.656	0.0026
482.01	0.0026
482.365	0.002
482.72	0.0021
483.074	0.0019
483.429	-0.0002
483.783	-0.0008
484.137	-0.0005
484.492	0.0001
484.846	-0.0009
485.2	-0.003
485.555	-0.0002
485.909	0.0011
486.263	0.0021
486.617	0.0004
486.971	-0.0018
487.325	0.0003
487.679	0.0004
488.033	0.0022
488.387	-0.0004
488.741	-0.0006
489.094	-0.0003
489.448	0.0026
489.802	0.0044
490.156	0.002
490.509	0.0024
490.863	0.0015
491.216	0.0015
491.57	-0.0019
491.923	-0.0003
492.277	0.0007
492.63	0.0027
492.983	0.0011
493.337	0.0015
493.69	0.0004
494.043	0.0003
494.396	0.0009
494.749	0.0016
495.102	0.002
495.455	0.0011
495.808	-0.0019
496.161	-0.0044
496.514	-0.0016
496.867	0.0013
497.22	0.0013
497.572	-0.0034
497.925	-0.0045
498.278	-0.0019
498.63	0.0001
498.983	0.0002
499.335	0.0012
499.688	0.0021
500.04	0.0041
500.393	0.0021
500.745	0.0005
501.097	-0.001
501.449	-0.0012
501.802	0.0005
502.154	-0.001
502.506	-0.0002
502.858	-0.0023
503.21	-0.0023
503.562	-0.001
503.914	0.0017
504.266	0.0034
504.618	0.0037
504.969	0.0028
505.321	0.0013
505.673	-0.0021
506.025	-0.0006
506.376	0.001
506.728	0.0032
507.079	0.003
507.431	0.0026
507.782	0.0017
508.134	-0.0016
508.485	-0.002
508.836	-0.0001
509.188	0.0034
509.539	0.0042
509.89	0.0016
510.241	-0.0008
510.592	-0.0021
510.943	-0.0036
511.294	-0.0006
511.645	-0.0004
511.996	0.003
512.347	-0.0019
512.698	-0.0017
513.049	-0.0036
513.399	-0.0014
513.75	-0.0027
514.101	-0.0031
514.451	-0.003
514.802	-0.0007
515.152	0.0014
515.503	0.004
515.853	0.0049
516.203	0.0034
516.554	0.0002
516.904	-0.0016
517.254	-0.0004
517.604	-0.0015
517.955	-0.0012
518.305	0.0001
518.655	0.0023
519.005	-0.0005
519.355	-0.0033
519.705	-0.0047
520.055	-0.0027
520.404	-0.0018
520.754	0.0009
521.104	0.0007
521.454	0.0011
521.803	-0.0006
522.153	-0.0015
522.502	-0.003
522.852	-0.0036
523.201	-0.0017
523.551	-0.0017
523.9	-0.0012
524.249	0.0006
524.599	-0.0002
524.948	-0.0005
525.297	-0.0039
525.646	-0.0025
525.995	-0.0031
526.344	-0.0005
526.694	-0.0007
527.042	0.0008
527.391	-0.0017
527.74	-0.0002
528.089	-0.0018
528.438	-0.0017
528.787	-0.0015
529.135	-0.0012
529.484	-0.001
529.833	-0.003
530.181	-0.0023
530.53	-0.0016
530.878	0.0007
531.227	-0.0005
531.575	-0.0018
531.923	-0.001
532.271	0.0015
532.62	0.004
532.968	0.001
533.316	0.0005
533.664	0.0002
534.012	-0
534.36	-0.0017
534.708	-0.0053
535.056	-0.0064
535.404	-0.0023
535.752	0.0014
536.1	0.0031
536.447	0.0017
536.795	0.0004
537.143	0.0006
537.49	0.0005
537.838	0.0002
538.185	-0.0011
538.533	-0.0015
538.88	-0.0001
539.228	0.0005
539.575	0.0004
539.922	-0.0011
540.269	0.001
540.617	-0.0007
540.964	0.0005
541.311	0.0003
541.658	0.001
542.005	0.0009
542.352	0.0008
542.699	0.0024
543.045	0.0012
543.392	0.0001
543.739	-0.0021
544.086	-0.0035
544.432	-0.0039
544.779	-0.0005
545.126	0.0011
545.472	0.0057
545.819	0.0042
546.165	0.0054
546.512	-0.0005
546.858	-0.0022
547.204	-0.0054
547.55	-0.003
547.897	-0.0019
548.243	-0.0001
548.589	0.0007
548.935	0.0003
549.281	-0.0015
549.627	-0.0036
549.973	-0.0062
550.319	-0.0034
550.665	-0.0006
551.01	0.0003
551.356	-0.0002
551.702	-0.0031
552.048	-0.0034
552.393	-0.0042
552.739	-0.001
553.084	0.0005
553.43	0.0002
553.775	0.0001
554.12	0.0021
554.466	0.003
554.811	-0.0026
555.156	-0.0044
555.502	-0.0046
555.847	-0.001
556.192	-0.0003
556.537	0.0006
556.882	0.001
557.227	0.0003
557.572	-0
557.917	-0.001
558.261	0.0007
558.606	-0.0008
558.951	-0.0001
559.295	-0.0012
559.64	-0.0006
559.985	-0.0041
560.329	-0.0022
560.674	0.0002
561.018	0.0018
561.363	-0.0025
561.707	-0.0054
562.051	-0.0037
562.395	-0.0031
562.74	0.0022
563.084	0.0018
563.428	0.0049
563.772	0.0014
564.116	0.0018
564.46	0.0002
564.804	0.002
565.148	0.0035
565.492	0.0041
565.835	0.0048
566.179	0.004
566.523	0.0004
566.866	-0.0047
567.21	-0.0055
567.554	-0.0045
567.897	-0.0012
568.24	-0.0026
568.584	-0.0039
568.927	-0.0043
569.271	-0.0021
569.614	-0.0006
569.957	0.0002
570.3	-0.0022
570.643	-0.0023
570.986	-0.0012
571.329	-0.001
571.672	0.004
572.015	0.004
572.358	0.0044
572.701	0
573.044	-0.0021
573.387	0.0001
573.729	0.0022
574.072	0.003
574.414	0.0008
574.757	-0.0009
575.099	-0.0022
575.442	-0.0021
575.784	-0.002
576.127	-0.0011
576.469	-0.0026
576.811	-0.0018
577.153	-0.0023
577.496	-0.0008
577.838	-0.0015
578.18	-0.0019
578.522	-0.0037
578.864	-0.0055
579.206	-0.0053
579.548	-0.0027
579.889	-0.0028
580.231	0.0001
580.573	0.0015
580.915	0.0017
581.256	-0.0027
581.598	-0.005
581.939	-0.0066
582.281	-0.0029
582.622	-0.0049
582.964	-0.0022
583.305	-0.0031
583.646	-0.0028
583.988	0.0004
584.329	0.0007
584.67	0.0008
585.011	-0.0023
585.352	-0.0021
585.693	-0.0004
586.034	-0.0007
586.375	-0.0027
586.716	-0.0029
587.057	0.0006
587.398	0.0028
587.738	0.0048
588.079	0.0017
588.42	0.0014
588.76	-0.0021
589.101	-0.0013
589.441	-0.001
589.782	0.0013
590.122	0.001
590.463	0.0004
590.803	-0.0014
591.143	-0.0015
591.483	-0.0041
591.823	-0.0045
592.164	-0.0054
592.504	-0.0031
592.844	-0.003
593.184	0
593.523	-0.0025
593.863	-0.0022
594.203	-0.0048
594.543	-0.0017
594.883	-0.0025
595.222	0.0004
595.562	0.0009
595.901	0.0012
596.241	-0.0013
596.58	-0.0028
596.92	-0.0032
597.259	-0.0034
597.599	-0.0025
597.938	-0.0002
598.277	0.0017
598.616	0.0003
598.955	-0.0008
599.295	-0.0023
599.634	-0.0015
599.973	-0.0018
600.312	-0.0038
600.65	-0.006
600.989	-0.0049
601.328	-0.0023
601.667	0.0011
602.005	-0.0039
602.344	-0.007
602.683	-0.0064
603.021	-0.0024
603.36	-0.0001
603.698	-0.0019
604.037	-0.0029
604.375	-0.0025
604.713	-0.0025
605.052	-0.0019
605.39	-0.001
605.728	0.0002
606.066	0.0008
606.404	0.0012
606.742	-0.0017
607.08	0.0011
607.418	-0.001
607.756	0.0004
608.094	-0.0019
608.431	-0.0015
608.769	0.002
609.107	-0.0003
609.444	0
609.782	-0.0034
610.12	-0.001
610.457	-0.0008
610.794	-0.0005
611.132	-0.0024
611.469	-0.0033
611.806	-0.0034
612.144	-0.0025
612.481	-0.0009
612.818	-0.0021
613.155	-0.0031
613.492	-0.0047
613.829	-0.0007
614.166	-0.0026
614.503	-0.001
614.84	-0.0052
615.176	-0.0037
615.513	-0.0019
615.85	-0.0001
616.187	0.001
616.523	-0.0021
616.86	-0.0022
617.196	-0.0038
617.533	-0.0008
617.869	-0.0021
618.205	-0.0032
618.542	-0.0059
618.878	-0.0067
619.214	-0.0021
619.55	-0.0034
619.886	-0.0016
620.222	-0.0043
620.558	-0.0017
620.894	-0.0023
621.23	-0.0023
621.566	-0.0035
621.902	-0.006
622.238	-0.0063
622.573	-0.0048
622.909	-0.0041
623.244	-0.0036
623.58	-0.0042
623.916	-0.0018
624.251	-0.0004
624.586	0.0003
624.922	-0.0011
625.257	-0.0047
625.592	-0.0045
625.927	-0.0052
626.263	-0.0017
626.598	-0.0033
626.933	-0.0005
627.268	0.0005
627.603	0.0015
627.938	-0.002
628.272	-0.003
628.607	-0.0058
628.942	-0.0043
629.277	-0.0072
629.611	-0.0076
629.946	-0.0058
630.281	-0.0012
630.615	0.0008
630.949	-0.0013
631.284	-0.0035
631.618	-0.0004
631.953	0.0016
632.287	-0.0009
632.621	-0.0072
632.955	-0.006
633.289	-0.0053
633.623	-0.003
633.957	0.0007
634.291	-0.0014
634.625	0.0003
634.959	-0.0059
635.293	-0.0061
635.627	-0.0038
635.96	-0.0036
636.294	-0.0043
636.627	-0.0079
636.961	-0.0042
637.294	0.0002
637.628	-0.0003
637.961	-0.0054
638.295	-0.0084
638.628	-0.0062
638.961	-0.0067
639.294	-0.0061
639.628	-0.0075
639.961	-0.0096
640.294	-0.0103
640.627	-0.01
640.96	-0.0059
641.293	-0.0026
641.625	0.0014
641.958	0.0012
642.291	-0.0048
642.624	-0.0068
642.956	-0.0063
643.289	0.0039
643.621	-0.0004
643.954	-0.0015
644.286	-0.0083
644.619	-0.0072
644.951	-0.008
645.283	-0.0069
645.616	-0.0067
645.948	-0.0043
646.28	-0.0026
646.612	-0.0034
646.944	-0.0005
647.276	-0.0048
647.608	-0.0092
647.94	-0.015
648.272	-0.0108
648.603	-0.006
648.935	-0.0048
649.267	-0.0036
649.598	-0.0026
649.93	-0.0007
650.261	-0.0014
650.593	-0.0036
650.924	-0.0032
651.256	-0.0024
651.587	0.0009
651.918	-0.001
652.25	-0.0021
652.581	-0.0053
652.912	-0.0068
653.243	-0.0097
653.574	-0.0059
653.905	-0.0049
654.236	0.0006
654.567	-0.0061
654.897	-0.0076
655.228	-0.0091
655.559	-0.003
655.89	-0.0002
656.22	0.0011
656.551	-0.0034
656.881	-0.0041
657.212	-0.0067
657.542	-0.0048
657.872	-0.0026
658.203	-0.0057
658.533	0.0024
658.863	0.0019
659.193	-0.0028
659.523	-0.005
659.853	-0.0107
660.183	-0.0027
660.513	-0.0033
660.843	0.0007
661.173	-0.0005
661.503	0.003
661.833	-0.0014
662.162	-0.0036
662.492	-0.0046
662.822	-0.006
663.151	-0.0059
663.481	-0.0059
663.81	-0.0038
664.139	-0.0056
664.469	-0.0041
664.798	-0.0015
665.127	-0.0033
665.456	-0.0029
665.785	-0.0049
666.114	-0.002
666.443	-0.0046
666.772	-0.0071
667.101	-0.005
667.43	-0.0076
667.759	-0.0075
668.088	-0.0103
668.416	-0.0108
668.745	-0.0094
669.074	-0.0121
669.402	-0.0087
669.731	-0.0087
670.059	-0.0063
670.388	-0.0094
670.716	-0.0069
671.044	-0.0076
671.372	-0.0076
671.701	-0.007
672.029	-0.005
672.357	-0.0036
672.685	-0.0066
673.013	-0.007
673.341	-0.0051
673.669	-0.0055
673.996	-0.0032
674.324	-0.0008
674.652	0.0009
674.98	-0.0006
675.307	-0.0061
675.635	-0.0048
675.962	-0.0042
676.29	-0.0002
676.617	-0.0032
676.945	-0.004
677.272	-0.0079
677.599	-0.0064
677.926	-0.007
678.253	-0.0033
678.581	-0.0054
678.908	-0.0056
679.235	-0.0088
679.561	-0.0057
679.888	-0.0064
680.215	-0.001
680.542	-0.004
680.869	-0.0009
681.195	-0.0066
681.522	-0.0039
681.849	-0.0037
682.175	0.0003
682.502	-0.0003
682.828	-0.0016
683.154	-0.0004
683.481	-0.0034
683.807	-0.0037
684.133	-0.0105
684.459	-0.0151
684.785	-0.0124
685.111	-0.0094
685.437	-0.0076
685.763	-0.0128
686.089	-0.015
686.415	-0.0116
686.741	-0.0073
687.067	-0.0041
687.392	-0.0051
687.718	-0.0078
688.043	-0.0068
688.369	-0.0034
688.694	-0
689.02	-0.002
689.345	-0.0075
689.67	-0.0115
689.996	-0.0108
690.321	-0.0044
690.646	-0.0024
690.971	-0.0009
691.296	-0.0006
691.621	-0.0017
691.946	-0.005
692.271	-0.0084
692.596	-0.0078
692.921	-0.0069
693.245	-0.0042
693.57	-0.0059
693.895	-0.0027
694.219	-0.003
694.544	-0.0013
694.868	-0.0053
695.193	-0.0083
695.517	-0.0097
695.841	-0.0136
696.166	-0.0089
696.49	-0.0093
696.814	-0.0029
697.138	-0.0037
697.462	-0.0016
697.786	-0.0006
698.11	0.0002
698.434	-0.0008
698.758	-0.0048
699.081	-0.0092
699.405	-0.0069
699.729	-0.0042
700.052	-0.0038
700.376	-0.0107
700.7	-0.0121
701.023	-0.0163
701.346	-0.0089
701.67	-0.0069
701.993	0.0006
702.316	-0.0009
702.639	0.0011
702.963	-0.0023
703.286	-0.0063
703.609	-0.0073
703.932	-0.0053
704.255	-0.0025
704.578	-0.0037
704.9	-0.0054
705.223	-0.0085
705.546	-0.0092
705.868	-0.0087
706.191	-0.0091
706.514	-0.011
706.836	-0.0104
707.159	-0.0065
707.481	-0.0041
707.803	0
708.126	0.0021
708.448	0.0058
708.77	0.0053
709.092	0.0027
709.414	-0.0012
709.736	-0.0058
710.058	-0.0055
710.38	0.0002
710.702	-0.0028
711.024	-0.0009
711.345	-0.0061
711.667	-0.0065
711.989	-0.0106
712.31	-0.0123
712.632	-0.0106
712.953	-0.0141
713.275	-0.0123
713.596	-0.0102
713.917	-0.0074
714.239	-0.0086
714.56	-0.0111
714.881	-0.0099
715.202	-0.0093
715.523	-0.0044
715.844	-0.0023
716.165	-0.004
716.486	-0.0028
716.807	-0.0066
717.128	-0.004
717.448	-0.0057
717.769	-0.0047
718.09	-0.0059
718.41	-0.0087
718.731	-0.0069
719.051	-0.0053
719.372	-0.0071
719.692	-0.0094
720.012	-0.0127
720.332	-0.0087
720.653	-0.0084
720.973	-0.008
721.293	-0.0127
721.613	-0.0098
721.933	-0.0084
722.253	-0.0009
722.573	-0.0043
722.892	-0.0075
723.212	-0.0091
723.532	-0.0081
723.851	-0.0101
724.171	-0.0109
724.491	-0.0126
724.81	-0.0109
725.129	-0.0139
725.449	-0.0104
725.768	-0.0039
726.087	-0.002
726.407	-0.003
726.726	-0.0038
727.045	-0.0065
727.364	-0.0078
727.683	-0.0092
728.002	-0.0125
728.321	-0.0121
728.64	-0.0118
728.958	-0.0048
729.277	-0.0033
729.596	-0.0047
729.914	-0.0077
730.233	-0.0057
730.551	-0.0051
730.87	-0.0047
731.188	-0.0074
731.507	-0.0068
731.825	-0.0051
732.143	-0.0043
732.461	-0.0054
732.779	-0.0085
733.097	-0.0103
733.415	-0.01
733.733	-0.0099
734.051	-0.008
734.369	-0.006
734.687	-0.0044
735.005	-0.0026
735.322	-0.0021
735.64	0.0006
735.957	0.0009
736.275	-0.0005
736.592	-0.0029
736.91	-0.0087
737.227	-0.0076
737.544	-0.0059
737.862	0.0003
738.179	0.0024
738.496	0.0036
738.813	0.0011
739.13	-0.0032
739.447	-0.0052
739.764	-0.0052
740.081	-0.0043
740.398	-0.0064
740.714	-0.0097
741.031	-0.011
741.348	-0.0088
741.664	-0.0044
741.981	-0.0007
742.297	0.0009
742.614	-0.0004
742.93	-0.003
743.246	-0.0094
743.563	-0.0158
743.879	-0.0163
744.195	-0.0123
744.511	-0.0128
744.827	-0.0112
745.143	-0.0104
745.459	-0.0037
745.775	-0.0072
746.091	-0.0129
746.406	-0.0169
746.722	-0.0154
747.038	-0.007
747.353	-0.0025
747.669	-0.0076
747.984	-0.0129
748.3	-0.0095
748.615	-0.005
748.93	0.0001
749.246	-0.002
749.561	-0.0013
749.876	-0.0065
750.191	-0.0104
750.506	-0.0121
750.821	-0.0112
751.136	-0.01
751.451	-0.0079
751.766	-0.0067
752.08	-0.0099
752.395	-0.0091
752.71	-0.0101
753.024	-0.0049
753.339	-0.0026
753.653	-0.0042
753.968	-0.0065
754.282	-0.0082
754.596	-0.0072
754.911	-0.0057
755.225	-0.006
755.539	-0.0053
755.853	-0.0088
756.167	-0.0136
756.481	-0.0125
756.795	-0.017
757.109	-0.0152
757.423	-0.0158
757.736	-0.011
758.05	-0.0109
758.364	-0.0085
758.677	-0.0024
758.991	-0.0005
759.304	-0.0016
759.618	-0.0063
759.931	-0.0093
760.244	-0.0073
760.558	-0.0039
760.871	-0.0006
761.184	-0.002
761.497	-0.004
761.81	-0.0077
762.123	-0.0083
762.436	-0.0102
762.749	-0.0043
763.062	-0.0058
763.374	-0.0054
763.687	-0.0108
764	-0.0102
764.312	-0.0093
764.625	-0.0069
764.937	-0.004
765.25	-0.0041
765.562	-0.0029
765.874	-0.0076
766.186	-0.0099
766.499	-0.0115
766.811	-0.008
767.123	-0.0042
767.435	-0.003
767.747	-0.0011
768.059	-0.0035
768.37	-0.0039
768.682	-0.0088
768.994	-0.0091
769.306	-0.0085
769.617	-0.0083
769.929	-0.0045
770.24	-0.0075
770.552	-0.0035
770.863	-0.0057
771.174	-0.007
771.486	-0.0068
771.797	-0.007
772.108	-0.0053
772.419	-0.0036
772.73	-0.0053
773.041	-0.0064
773.352	-0.0069
773.663	-0.0038
773.974	-0.002
774.285	-0.0089
774.595	-0.0126
774.906	-0.0118
775.217	-0.0088
775.527	-0.0052
775.838	-0.005
776.148	-0.0033
776.458	0.0001
776.769	-0.0013
777.079	-0.0055
777.389	-0.0093
777.699	-0.0047
778.009	-0.0015
778.319	-0.0013
778.629	-0.003
778.939	-0.0036
779.249	-0.0019
779.559	-0.0052
779.869	-0.0091
780.178	-0.0113
780.488	-0.0125
780.798	-0.0112
781.107	-0.0114
781.417	-0.0074
781.726	-0.0023
782.035	-0.0031
782.345	-0.0051
782.654	-0.0068
782.963	-0.0092
783.272	-0.008
783.581	-0.005
783.89	-0.0096
784.199	-0.0105
784.508	-0.0087
784.817	-0.0046
785.126	-0.0059
785.434	-0.0108
785.743	-0.0113
786.052	-0.0066
786.36	-0.0053
786.669	-0.0026
786.977	-0.0052
787.285	-0.0046
787.594	-0.0073
787.902	-0.0116
788.21	-0.0107
788.518	-0.0066
788.826	0.0002
789.135	-0.0032
789.442	-0.0026
789.75	-0.0056
790.058	-0.0035
790.366	-0.0095
790.674	-0.0139
790.981	-0.0138
791.289	-0.0089
791.597	-0.0066
791.904	-0.0069
792.212	-0.0092
792.519	-0.0109
792.826	-0.0129
793.134	-0.0047
793.441	-0.003
793.748	-0.0042
794.055	-0.0024
794.362	-0.0001
794.669	0.0025
794.976	-0.0054
795.283	-0.0021
795.59	0.0023
795.897	0.0007
796.203	0.0009
796.51	-0.0018
796.817	-0.0046
797.123	-0.0095
797.43	-0.0091
797.736	-0.0028
798.042	-0
798.349	-0.0006
798.655	-0.0053
798.961	-0.0079
799.267	-0.0091
799.573	-0.0081
799.879	-0.0017
800.185	0.0009
800.491	0.0011
800.797	-0.0099
801.103	-0.0098
801.408	-0.0118
801.714	-0.0078
802.02	-0.008
802.325	-0.0069
802.631	-0.0052
802.936	-0.0184
803.242	-0.0229
803.547	-0.0254
803.852	-0.0162
804.157	-0.0118
804.462	-0.0026
804.768	0.0017
805.073	0.0049
805.378	-0.0064
805.682	-0.0125
805.987	-0.0206
806.292	-0.0111
806.597	-0.0067
806.902	-0.0046
807.206	-0.0117
807.511	-0.0128
807.815	-0.0048
808.12	-0.003
808.424	0.0005
808.728	-0.0041
809.033	0.002
809.337	0.0023
809.641	-0.0031
809.945	-0.0132
810.249	-0.0186
810.553	-0.0047
810.857	0.0051
811.161	0.0114
811.465	0.0004
811.768	-0.0129
812.072	-0.0156
812.376	-0.0162
812.679	-0.0049
812.983	-0.0078
813.286	-0.0137
813.59	-0.0201
813.893	-0.0211
814.196	-0.0101
814.499	-0.0088
814.803	-0.0125
815.106	-0.0108
815.409	0.0003
815.712	0.0086
816.015	0.0056
816.318	-0.0035
816.62	-0.0033
816.923	-0.0032
817.226	-0.0059
817.528	-0.0069
817.831	-0.0109
818.133	-0.0128
818.436	-0.0166
818.738	-0.0154
819.041	-0.0077
819.343	-0.0014
819.645	-0.0062
819.947	0.0003
820.249	0.0031
820.551	0.0113
820.853	0.0032
821.155	-0.0121
821.457	-0.0165
821.759	-0.0167
822.061	-0.0105
822.362	-0.0082
822.664	-0.0054
822.966	-0.0083
823.267	-0.008
823.569	-0.0136
823.87	-0.007
824.171	-0.0108
824.473	-0.0094
824.774	-0.016
825.075	-0.0147
825.376	-0.0179
825.677	-0.0165
825.978	-0.0111
826.279	-0.0075
826.58	-0.0113
826.881	-0.0207
827.181	-0.022
827.482	-0.0146
827.783	-0.0034
828.083	-0.0021
828.384	-0.0052
828.684	-0.0064
828.985	-0.0103
829.285	-0.013
829.585	-0.0176
829.885	-0.009
830.185	-0.0039
830.486	0.0045
830.786	0.0031
831.086	-0.0079
831.385	-0.0151
831.685	-0.0191
831.985	-0.0093
832.285	-0.0099
832.585	-0.0048
832.884	-0.0121
833.184	-0.0113
833.483	-0.0173
833.783	-0.006
834.082	-0.0091
834.381	-0.0054
834.681	-0.0119
834.98	-0.0153
835.279	-0.0189
835.578	-0.0173
835.877	-0.013
836.176	-0.0162
836.475	-0.0109
836.774	-0.0211
837.072	-0.0227
837.371	-0.0373
837.67	-0.0244
837.968	-0.0168
838.267	-0.0092
838.565	-0.0084
838.864	-0.0005
839.162	0.0008
839.46	-0.0018
839.759	-0.0069
840.057	-0.0096
840.355	-0.0113
840.653	-0.0115
840.951	-0.0065
841.249	-0.0008
841.547	-0.0061
841.845	0.0016
842.142	-0.0155
842.44	-0.0103
842.738	-0.0319
843.035	-0.0158
843.333	-0.0143
843.63	-0.0047
843.928	-0.0141
844.225	-0.0265
844.522	-0.0207
844.82	-0.0236
845.117	-0.0198
845.414	-0.0232
845.711	-0.0238
846.008	-0.0247
846.305	-0.0248
846.602	-0.0091
846.898	0.0034
847.195	0.0026
847.492	-0.0029
847.788	-0.0177
848.085	-0.0148
848.382	-0.0201
848.678	-0.0224
848.974	-0.0239
849.271	-0.0143
849.567	-0.0205
849.863	-0.0201
850.159	-0.0221
850.455	-0.008
850.751	-0.0191
851.047	-0.0338
851.343	-0.0377
851.639	-0.0291
851.935	-0.0298
852.23	-0.0254
852.526	-0.0305
852.822	-0.0198
853.117	-0.0217
853.413	-0.0155
853.708	-0.0224
854.003	-0.0312
854.299	-0.0189
854.594	-0.0238
854.889	-0.0142
855.184	-0.0192
855.479	-0.0073
855.774	-0.0179
856.069	-0.0207
856.364	-0.0276
856.659	-0.0217
856.954	-0.0323
857.248	-0.0269
857.543	-0.0235
857.837	-0.017
858.132	-0.0038
858.426	0.0025
858.721	0.0092
859.015	0.0056
859.309	-0.0005
859.604	-0.0171
859.898	-0.0104
860.192	-0.0143
860.486	0.001
860.78	-0.0063
861.074	0.0029
861.367	-0.0086
861.661	-0.0043
861.955	-0.0161
862.248	0.0003
862.542	-0.0106
862.836	0.0031
863.129	-0.0066
863.422	-0.0019
863.716	-0.0136
864.009	-0.0119
864.302	-0.0171
864.595	-0.0042
864.889	0.0001
865.182	-0.0116
865.475	-0.0335
865.767	-0.0448
866.06	-0.0591
866.353	-0.0387
866.646	-0.0351
866.938	-0.0124
867.231	0.0112
867.524	0.0193
867.816	0.0135
868.109	-0.027
868.401	-0.0378
868.693	-0.0213
868.985	-0.008
869.278	-0.0043
869.57	0.0065
869.862	-0.0134
870.154	-0.0095
870.446	-0.0347
870.738	-0.0352
871.029	-0.0335
871.321	-0.0345
871.613	-0.0105
871.904	-0.0335
872.196	-0.0162
872.487	-0.0126
872.779	0.009
873.07	0.0079
873.362	-0.0116
873.653	-0.0221
873.944	-0.0212
874.235	-0.0214
874.526	-0.0104
874.817	-0.018
875.108	-0.0054
875.399	-0.02
875.69	-0.0338
875.981	-0.0482
876.271	-0.0332
876.562	-0.0065
876.853	0.0093
877.143	-0.0209
877.434	-0.0318
877.724	-0.0422
878.014	-0.0154
878.305	-0.0176
878.595	-0.0363
878.885	-0.0354
879.175	-0.0506
879.465	-0.0322
879.755	-0.0333
880.045	-0.0103
880.335	-0.0002
880.624	0.0103
880.914	0.0103
