Data from 45SS03BU-alt2_080317_1b_Absorbance_15-33-17-583.txt Node
Date: Sun Aug 06 15:33:17 MDT 2017
User: Tank Lab
Spectrometer: FLMS01220
Trigger mode: 0
Integration Time (sec): 1.000000E-1
Scans to average: 10
Electric dark correction enabled: true
Nonlinearity correction enabled: false
Boxcar width: 1
XAxis mode: Wavelengths
Number of Pixels in Spectrum: 2048
>>>>>Begin Spectral Data<<<<<
179.47	0.0421
179.856	0.0421
180.241	0.0941
180.626	0.2449
181.011	0.7712
181.396	-0.0276
181.781	-0.7882
182.166	-0.3254
182.551	-0.3073
182.936	0.0931
183.321	-0
183.706	-1.0116
184.091	-0.3991
184.476	-0
184.86	0.6169
185.245	-0
185.63	0.2541
186.015	0.4986
186.399	0.3953
186.784	-0.3483
187.169	0.1914
187.553	0.1527
187.938	-0.1777
188.322	-0.0018
188.707	0.0158
189.091	0.0279
189.475	0.0355
189.86	0.0959
190.244	0.1214
190.629	0.1368
191.013	0.1473
191.397	0.184
191.781	0.2603
192.165	0.3161
192.55	0.3701
192.934	0.4053
193.318	0.4187
193.702	0.448
194.086	0.4477
194.47	0.457
194.854	0.4626
195.238	0.4556
195.622	0.4492
196.006	0.4345
196.389	0.4208
196.773	0.409
197.157	0.3881
197.541	0.3697
197.924	0.3449
198.308	0.328
198.692	0.3191
199.075	0.2959
199.459	0.277
199.843	0.2505
200.226	0.2413
200.61	0.2232
200.993	0.2116
201.376	0.2001
201.76	0.1911
202.143	0.1843
202.527	0.1798
202.91	0.1707
203.293	0.1675
203.676	0.1599
204.059	0.1616
204.443	0.1545
204.826	0.1458
205.209	0.1359
205.592	0.1287
205.975	0.1282
206.358	0.1277
206.741	0.1307
207.124	0.1288
207.507	0.1298
207.89	0.1236
208.273	0.1214
208.655	0.1171
209.038	0.1156
209.421	0.1156
209.804	0.1159
210.186	0.1184
210.569	0.1134
210.951	0.1132
211.334	0.1109
211.717	0.1112
212.099	0.1091
212.482	0.1079
212.864	0.1099
213.246	0.107
213.629	0.1049
214.011	0.1032
214.393	0.1023
214.776	0.0991
215.158	0.0966
215.54	0.096
215.922	0.0993
216.305	0.0986
216.687	0.0975
217.069	0.0944
217.451	0.092
217.833	0.0911
218.215	0.0899
218.597	0.0871
218.979	0.0846
219.361	0.0794
219.742	0.0793
220.124	0.0785
220.506	0.08
220.888	0.0793
221.27	0.0774
221.651	0.0769
222.033	0.0758
222.415	0.0746
222.796	0.0734
223.178	0.0714
223.559	0.0694
223.941	0.0681
224.322	0.0691
224.704	0.0703
225.085	0.0701
225.466	0.0671
225.848	0.0646
226.229	0.0617
226.61	0.0596
226.992	0.0599
227.373	0.059
227.754	0.0596
228.135	0.0581
228.516	0.0572
228.897	0.0571
229.278	0.0549
229.659	0.0546
230.04	0.053
230.421	0.052
230.802	0.0516
231.183	0.0506
231.564	0.0515
231.944	0.0501
232.325	0.0488
232.706	0.0462
233.087	0.0453
233.467	0.0444
233.848	0.0459
234.229	0.045
234.609	0.0449
234.99	0.0435
235.37	0.0426
235.751	0.0434
236.131	0.0417
236.511	0.0406
236.892	0.0387
237.272	0.0397
237.652	0.0394
238.033	0.0385
238.413	0.036
238.793	0.0371
239.173	0.0382
239.553	0.0393
239.933	0.0381
240.313	0.037
240.694	0.0362
241.074	0.038
241.453	0.0372
241.833	0.0364
242.213	0.0329
242.593	0.0326
242.973	0.0335
243.353	0.035
243.732	0.0345
244.112	0.033
244.492	0.0334
244.872	0.0332
245.251	0.0348
245.631	0.0338
246.01	0.0339
246.39	0.0337
246.769	0.0341
247.149	0.0338
247.528	0.033
247.908	0.0338
248.287	0.034
248.666	0.0332
249.045	0.0313
249.425	0.0322
249.804	0.0328
250.183	0.0329
250.562	0.0327
250.941	0.0322
251.32	0.0306
251.699	0.0302
252.078	0.0304
252.457	0.0315
252.836	0.0317
253.215	0.0322
253.594	0.0317
253.973	0.0311
254.352	0.0293
254.731	0.0295
255.109	0.0294
255.488	0.0303
255.867	0.0321
256.245	0.0306
256.624	0.031
257.002	0.0297
257.381	0.0309
257.759	0.0307
258.138	0.0304
258.516	0.03
258.895	0.029
259.273	0.0296
259.651	0.0303
260.03	0.031
260.408	0.0307
260.786	0.0303
261.164	0.0301
261.542	0.0299
261.921	0.0291
262.299	0.0295
262.677	0.0302
263.055	0.0298
263.433	0.0298
263.811	0.0295
264.188	0.0301
264.566	0.0293
264.944	0.028
265.322	0.0275
265.7	0.0273
266.077	0.0277
266.455	0.0293
266.833	0.0306
267.21	0.0305
267.588	0.029
267.966	0.0286
268.343	0.0283
268.721	0.0278
269.098	0.0272
269.475	0.028
269.853	0.0287
270.23	0.0282
270.607	0.0267
270.985	0.0264
271.362	0.0274
271.739	0.0287
272.116	0.0293
272.494	0.029
272.871	0.0279
273.248	0.0261
273.625	0.0262
274.002	0.0272
274.379	0.03
274.756	0.0287
275.132	0.0285
275.509	0.0267
275.886	0.0275
276.263	0.0287
276.64	0.028
277.016	0.0276
277.393	0.0264
277.77	0.0267
278.146	0.0266
278.523	0.0258
278.899	0.0255
279.276	0.026
279.652	0.0281
280.029	0.0285
280.405	0.0295
280.782	0.0269
281.158	0.0279
281.534	0.0273
281.91	0.028
282.287	0.0268
282.663	0.0264
283.039	0.0272
283.415	0.0283
283.791	0.03
284.167	0.0299
284.543	0.0291
284.919	0.0265
285.295	0.0256
285.671	0.0257
286.047	0.0263
286.423	0.0269
286.799	0.0265
287.174	0.0267
287.55	0.0268
287.926	0.0271
288.301	0.0268
288.677	0.0271
289.053	0.0275
289.428	0.0273
289.804	0.028
290.179	0.0275
290.555	0.028
290.93	0.027
291.305	0.0265
291.681	0.0276
292.056	0.0283
292.431	0.0293
292.806	0.0278
293.182	0.0255
293.557	0.0251
293.932	0.0244
294.307	0.0266
294.682	0.0248
295.057	0.0249
295.432	0.0243
295.807	0.0263
296.182	0.0267
296.557	0.027
296.932	0.0265
297.306	0.0268
297.681	0.0255
298.056	0.0249
298.43	0.025
298.805	0.0247
299.18	0.0261
299.554	0.026
299.929	0.0264
300.303	0.0256
300.678	0.0244
301.052	0.0248
301.427	0.0249
301.801	0.0274
302.175	0.0264
302.55	0.0261
302.924	0.0245
303.298	0.0252
303.672	0.0255
304.046	0.0249
304.421	0.0242
304.795	0.0241
305.169	0.0245
305.543	0.0255
305.917	0.0258
306.291	0.0262
306.664	0.0264
307.038	0.0244
307.412	0.0239
307.786	0.0242
308.16	0.0245
308.533	0.026
308.907	0.0252
309.281	0.0267
309.654	0.026
310.028	0.0264
310.401	0.0257
310.775	0.0252
311.148	0.0227
311.522	0.0222
311.895	0.0223
312.268	0.0246
312.642	0.0246
313.015	0.0244
313.388	0.0245
313.761	0.0236
314.135	0.0227
314.508	0.022
314.881	0.0232
315.254	0.0226
315.627	0.022
316	0.0222
316.373	0.0227
316.746	0.0236
317.118	0.0235
317.491	0.0232
317.864	0.0226
318.237	0.0222
318.61	0.0219
318.982	0.0201
319.355	0.0216
319.727	0.0217
320.1	0.0224
320.473	0.0201
320.845	0.0203
321.218	0.0211
321.59	0.0212
321.962	0.0218
322.335	0.0221
322.707	0.0221
323.079	0.0215
323.452	0.0212
323.824	0.0212
324.196	0.0218
324.568	0.0226
324.94	0.0226
325.312	0.0229
325.684	0.022
326.056	0.0206
326.428	0.0202
326.8	0.0198
327.172	0.0217
327.544	0.0199
327.915	0.0202
328.287	0.0205
328.659	0.0208
329.031	0.0204
329.402	0.0198
329.774	0.0196
330.145	0.0197
330.517	0.0186
330.888	0.0174
331.26	0.0178
331.631	0.0183
332.003	0.0202
332.374	0.0186
332.745	0.0193
333.117	0.0166
333.488	0.0175
333.859	0.0174
334.23	0.0195
334.601	0.0207
334.972	0.0191
335.343	0.0183
335.714	0.0157
336.085	0.0151
336.456	0.0151
336.827	0.0157
337.198	0.0157
337.569	0.0168
337.94	0.0168
338.31	0.0182
338.681	0.0173
339.052	0.0167
339.422	0.0154
339.793	0.0141
340.164	0.0135
340.534	0.014
340.905	0.0147
341.275	0.0149
341.645	0.0153
342.016	0.0166
342.386	0.018
342.756	0.0178
343.127	0.0171
343.497	0.0168
343.867	0.0164
344.237	0.0157
344.607	0.0164
344.977	0.016
345.347	0.0169
345.717	0.0175
346.087	0.0171
346.457	0.0159
346.827	0.0129
347.197	0.0131
347.567	0.0144
347.936	0.0149
348.306	0.0158
348.676	0.0142
349.046	0.0151
349.415	0.0148
349.785	0.0158
350.154	0.0146
350.524	0.0167
350.893	0.0169
351.263	0.0194
351.632	0.0176
352.001	0.0162
352.371	0.0157
352.74	0.0155
353.109	0.0163
353.478	0.0156
353.847	0.0153
354.217	0.0172
354.586	0.0163
354.955	0.0152
355.324	0.012
355.693	0.0113
356.062	0.0127
356.43	0.0139
356.799	0.014
357.168	0.0133
357.537	0.0144
357.906	0.0149
358.274	0.0161
358.643	0.015
359.011	0.0151
359.38	0.0158
359.749	0.0158
360.117	0.0156
360.486	0.0136
360.854	0.0136
361.222	0.0126
361.591	0.0131
361.959	0.0135
362.327	0.0134
362.695	0.0137
363.064	0.0131
363.432	0.0134
363.8	0.0142
364.168	0.0139
364.536	0.016
364.904	0.0153
365.272	0.0159
365.64	0.0153
366.008	0.0146
366.376	0.0133
366.743	0.0112
367.111	0.0118
367.479	0.0139
367.847	0.015
368.214	0.0138
368.582	0.0127
368.949	0.0117
369.317	0.0125
369.684	0.0109
370.052	0.0131
370.419	0.0123
370.787	0.014
371.154	0.0122
371.521	0.0127
371.889	0.0122
372.256	0.0141
372.623	0.014
372.99	0.013
373.357	0.0112
373.724	0.0124
374.091	0.0118
374.458	0.0127
374.825	0.0124
375.192	0.0142
375.559	0.0125
375.926	0.012
376.293	0.012
376.659	0.0111
377.026	0.0111
377.393	0.0113
377.759	0.0137
378.126	0.0127
378.492	0.0119
378.859	0.0112
379.225	0.011
379.592	0.0109
379.958	0.012
380.325	0.0131
380.691	0.0122
381.057	0.0103
381.423	0.0116
381.79	0.0105
382.156	0.0114
382.522	0.0108
382.888	0.0135
383.254	0.0138
383.62	0.0141
383.986	0.0122
384.352	0.0141
384.718	0.0126
385.084	0.0136
385.449	0.0117
385.815	0.0115
386.181	0.0113
386.547	0.0101
386.912	0.01
387.278	0.0091
387.643	0.0103
388.009	0.0111
388.374	0.0128
388.74	0.0129
389.105	0.0134
389.471	0.0134
389.836	0.0125
390.201	0.0125
390.566	0.0133
390.932	0.0151
391.297	0.0156
391.662	0.0156
392.027	0.0149
392.392	0.013
392.757	0.0105
393.122	0.0097
393.487	0.0108
393.852	0.0124
394.217	0.0133
394.582	0.0139
394.946	0.0142
395.311	0.0149
395.676	0.0139
396.04	0.0121
396.405	0.0111
396.77	0.0113
397.134	0.0111
397.499	0.0096
397.863	0.0103
398.227	0.0116
398.592	0.0133
398.956	0.0111
399.32	0.0121
399.685	0.0115
400.049	0.0134
400.413	0.011
400.777	0.012
401.141	0.0104
401.505	0.0112
401.869	0.009
402.233	0.0104
402.597	0.0097
402.961	0.0102
403.325	0.0086
403.689	0.0099
404.053	0.0119
404.416	0.012
404.78	0.0126
405.144	0.0113
405.507	0.0108
405.871	0.0082
406.234	0.007
406.598	0.0084
406.961	0.01
407.325	0.0104
407.688	0.0083
408.051	0.0088
408.415	0.0103
408.778	0.0123
409.141	0.0104
409.504	0.0085
409.867	0.0079
410.23	0.009
410.593	0.01
410.956	0.0105
411.319	0.0106
411.682	0.0102
412.045	0.0095
412.408	0.0117
412.771	0.0116
413.134	0.0116
413.496	0.0104
413.859	0.0102
414.222	0.0111
414.584	0.0118
414.947	0.0127
415.309	0.0114
415.672	0.0091
416.034	0.0117
416.396	0.0109
416.759	0.0133
417.121	0.0111
417.483	0.014
417.846	0.0114
418.208	0.0124
418.57	0.0122
418.932	0.0122
419.294	0.011
419.656	0.0114
420.018	0.0134
420.38	0.0136
420.742	0.0124
421.104	0.0104
421.466	0.0121
421.827	0.0125
422.189	0.0133
422.551	0.0128
422.912	0.0127
423.274	0.0126
423.636	0.0095
423.997	0.0086
424.359	0.0094
424.72	0.011
425.081	0.0102
425.443	0.01
425.804	0.0104
426.165	0.0117
426.527	0.0122
426.888	0.012
427.249	0.0145
427.61	0.0141
427.971	0.0125
428.332	0.0076
428.693	0.0068
429.054	0.0078
429.415	0.0114
429.776	0.0115
430.137	0.0119
430.498	0.0102
430.858	0.0099
431.219	0.0098
431.58	0.0117
431.94	0.0134
432.301	0.0134
432.661	0.013
433.022	0.0106
433.382	0.0105
433.743	0.0104
434.103	0.012
434.463	0.0116
434.824	0.0124
435.184	0.012
435.544	0.0131
435.904	0.0111
436.264	0.0098
436.624	0.0106
436.985	0.0113
437.345	0.0121
437.704	0.0093
438.064	0.011
438.424	0.012
438.784	0.0125
439.144	0.0126
439.504	0.0113
439.863	0.0121
440.223	0.0104
440.583	0.0079
440.942	0.0076
441.302	0.0071
441.661	0.0126
442.021	0.0122
442.38	0.0131
442.739	0.0102
443.099	0.0116
443.458	0.0109
443.817	0.0123
444.176	0.0126
444.536	0.0124
444.895	0.0111
445.254	0.0101
445.613	0.009
445.972	0.0087
446.331	0.0075
446.69	0.0072
447.049	0.0084
447.407	0.0088
447.766	0.0131
448.125	0.0155
448.484	0.0175
448.842	0.0151
449.201	0.0107
449.559	0.0084
449.918	0.0092
450.276	0.0094
450.635	0.01
450.993	0.0063
451.352	0.0078
451.71	0.0101
452.068	0.0132
452.426	0.0145
452.785	0.0123
453.143	0.0129
453.501	0.0118
453.859	0.0112
454.217	0.0071
454.575	0.0061
454.933	0.0072
455.291	0.011
455.649	0.0096
456.006	0.0098
456.364	0.0081
456.722	0.0096
457.079	0.0087
457.437	0.0085
457.795	0.0075
458.152	0.0081
458.51	0.0081
458.867	0.0113
459.225	0.0111
459.582	0.0136
459.939	0.0132
460.297	0.0126
460.654	0.0104
461.011	0.0075
461.368	0.0073
461.725	0.0081
462.082	0.0076
462.44	0.0096
462.797	0.0118
463.153	0.0125
463.51	0.012
463.867	0.0093
464.224	0.0101
464.581	0.0102
464.938	0.0116
465.294	0.012
465.651	0.0113
466.008	0.0107
466.364	0.0102
466.721	0.0088
467.077	0.0094
467.434	0.009
467.79	0.0103
468.146	0.0083
468.503	0.0083
468.859	0.0059
469.215	0.0087
469.571	0.0104
469.927	0.0147
470.284	0.0153
470.64	0.0146
470.996	0.0131
471.352	0.0089
471.707	0.0086
472.063	0.0075
472.419	0.0089
472.775	0.0102
473.131	0.009
473.486	0.011
473.842	0.0123
474.198	0.0147
474.553	0.0144
474.909	0.0129
475.264	0.0122
475.62	0.0121
475.975	0.0115
476.331	0.0141
476.686	0.0116
477.041	0.0093
477.396	0.0082
477.752	0.0089
478.107	0.0105
478.462	0.0085
478.817	0.0096
479.172	0.009
479.527	0.0102
479.882	0.0094
480.237	0.0103
480.591	0.0095
480.946	0.0109
481.301	0.0113
481.656	0.0109
482.01	0.0106
482.365	0.0097
482.72	0.011
483.074	0.0094
483.429	0.0075
483.783	0.0082
484.137	0.0086
484.492	0.0085
484.846	0.0083
485.2	0.0085
485.555	0.0113
485.909	0.0116
486.263	0.0127
486.617	0.011
486.971	0.0089
487.325	0.0082
487.679	0.0068
488.033	0.009
488.387	0.0079
488.741	0.0094
489.094	0.0088
489.448	0.0103
489.802	0.013
490.156	0.01
490.509	0.0093
490.863	0.007
491.216	0.0103
491.57	0.0098
491.923	0.0118
492.277	0.0113
492.63	0.0121
492.983	0.0091
493.337	0.0078
493.69	0.0082
494.043	0.0087
494.396	0.0109
494.749	0.0087
495.102	0.0112
495.455	0.0093
495.808	0.0081
496.161	0.0051
496.514	0.0054
496.867	0.0087
497.22	0.0081
497.572	0.0057
497.925	0.0042
498.278	0.0053
498.63	0.0072
498.983	0.0082
499.335	0.0105
499.688	0.0127
500.04	0.0128
500.393	0.0102
500.745	0.0085
501.097	0.0092
501.449	0.009
501.802	0.0095
502.154	0.0065
502.506	0.0072
502.858	0.0049
503.21	0.0071
503.562	0.0096
503.914	0.0126
504.266	0.0118
504.618	0.011
504.969	0.0107
505.321	0.0094
505.673	0.0057
506.025	0.0063
506.376	0.0095
506.728	0.01
507.079	0.0096
507.431	0.0091
507.782	0.0102
508.134	0.0086
508.485	0.0074
508.836	0.0087
509.188	0.01
509.539	0.0086
509.89	0.0063
510.241	0.0038
510.592	0.0062
510.943	0.0074
511.294	0.013
511.645	0.0135
511.996	0.0156
512.347	0.0103
512.698	0.0095
513.049	0.0069
513.399	0.0083
513.75	0.0081
514.101	0.0075
514.451	0.0056
514.802	0.0049
515.152	0.0059
515.503	0.0088
515.853	0.0096
516.203	0.0103
516.554	0.0087
516.904	0.0081
517.254	0.0083
517.604	0.0086
517.955	0.0086
518.305	0.0092
518.655	0.011
519.005	0.0102
519.355	0.0084
519.705	0.0042
520.055	0.0047
520.404	0.0049
520.754	0.0081
521.104	0.0086
521.454	0.0102
521.803	0.0102
522.153	0.0113
522.502	0.0104
522.852	0.0102
523.201	0.008
523.551	0.0075
523.9	0.0075
524.249	0.0097
524.599	0.0064
524.948	0.0026
525.297	0.0019
525.646	0.0053
525.995	0.0082
526.344	0.0087
526.694	0.0078
527.042	0.008
527.391	0.0067
527.74	0.006
528.089	0.0054
528.438	0.0048
528.787	0.0065
529.135	0.0052
529.484	0.0072
529.833	0.0079
530.181	0.0086
530.53	0.0078
530.878	0.0069
531.227	0.0067
531.575	0.0066
531.923	0.0075
532.271	0.0084
532.62	0.0085
532.968	0.0069
533.316	0.0093
533.664	0.0091
534.012	0.0095
534.36	0.0085
534.708	0.0049
535.056	0.006
535.404	0.0079
535.752	0.0116
536.1	0.0102
536.447	0.0082
536.795	0.0094
537.143	0.0122
537.49	0.0145
537.838	0.0132
538.185	0.0081
538.533	0.0069
538.88	0.0083
539.228	0.0104
539.575	0.0086
539.922	0.0069
540.269	0.0106
540.617	0.0105
540.964	0.0103
541.311	0.0075
541.658	0.0086
542.005	0.0098
542.352	0.0108
542.699	0.0107
543.045	0.007
543.392	0.0056
543.739	0.0049
544.086	0.006
544.432	0.0068
544.779	0.0086
545.126	0.0094
545.472	0.0114
545.819	0.0101
546.165	0.0118
546.512	0.0073
546.858	0.005
547.204	0.0025
547.55	0.0046
547.897	0.0086
548.243	0.0099
548.589	0.0113
548.935	0.0076
549.281	0.0047
549.627	0.003
549.973	0.0037
550.319	0.0068
550.665	0.0089
551.01	0.0108
551.356	0.0104
551.702	0.0067
552.048	0.0047
552.393	0.0045
552.739	0.0058
553.084	0.0059
553.43	0.0045
553.775	0.0067
554.12	0.0079
554.466	0.0086
554.811	0.006
555.156	0.0061
555.502	0.0052
555.847	0.0059
556.192	0.0053
556.537	0.009
556.882	0.0093
557.227	0.008
557.572	0.0075
557.917	0.0106
558.261	0.0109
558.606	0.0098
558.951	0.0082
559.295	0.0106
559.64	0.0104
559.985	0.0077
560.329	0.0069
560.674	0.0073
561.018	0.0066
561.363	0.0025
561.707	0.0012
562.051	0.002
562.395	0.0045
562.74	0.0065
563.084	0.0054
563.428	0.0055
563.772	0.0046
564.116	0.0071
564.46	0.0091
564.804	0.0087
565.148	0.007
565.492	0.0058
565.835	0.0076
566.179	0.0098
566.523	0.0084
566.866	0.005
567.21	0.0031
567.554	0.0038
567.897	0.0084
568.24	0.0082
568.584	0.0058
568.927	0.0049
569.271	0.006
569.614	0.0068
569.957	0.0052
570.3	0.0069
570.643	0.0083
570.986	0.0093
571.329	0.0065
571.672	0.0092
572.015	0.01
572.358	0.0108
572.701	0.0067
573.044	0.0033
573.387	0.0033
573.729	0.0065
574.072	0.0094
574.414	0.0102
574.757	0.0098
575.099	0.0076
575.442	0.0077
575.784	0.0086
576.127	0.0092
576.469	0.008
576.811	0.0076
577.153	0.01
577.496	0.0098
577.838	0.0087
578.18	0.0051
578.522	0.0041
578.864	0.0017
579.206	0.0055
579.548	0.0072
579.889	0.0078
580.231	0.0082
580.573	0.0102
580.915	0.0093
581.256	0.0044
581.598	0.0029
581.939	0.0029
582.281	0.009
582.622	0.0071
582.964	0.0077
583.305	0.0063
583.646	0.0061
583.988	0.0091
584.329	0.0091
584.67	0.0085
585.011	0.0057
585.352	0.0037
585.693	0.0044
586.034	0.0036
586.375	0.0025
586.716	0.0029
587.057	0.0057
587.398	0.0105
587.738	0.0118
588.079	0.0089
588.42	0.0083
588.76	0.0051
589.101	0.0072
589.441	0.0058
589.782	0.006
590.122	0.0059
590.463	0.0052
590.803	0.0057
591.143	0.0053
591.483	0.0054
591.823	0.0066
592.164	0.0041
592.504	0.0061
592.844	0.0058
593.184	0.0099
593.523	0.0069
593.863	0.0041
594.203	0.0017
594.543	0.005
594.883	0.0064
595.222	0.0091
595.562	0.0105
595.901	0.0095
596.241	0.0065
596.58	0.0042
596.92	0.0043
597.259	0.0047
597.599	0.0058
597.938	0.0086
598.277	0.0072
598.616	0.0056
598.955	0.0034
599.295	0.0079
599.634	0.0068
599.973	0.0071
600.312	0.0065
600.65	0.0087
600.989	0.0085
601.328	0.0089
601.667	0.0099
602.005	0.0062
602.344	0.0055
602.683	0.0053
603.021	0.0097
603.36	0.0093
603.698	0.008
604.037	0.0065
604.375	0.0065
604.713	0.0053
605.052	0.0048
605.39	0.0037
605.728	0.0039
606.066	0.0057
606.404	0.0043
606.742	0.0045
607.08	0.0055
607.418	0.0045
607.756	0.0053
608.094	0.0032
608.431	0.0042
608.769	0.0069
609.107	0.0053
609.444	0.0089
609.782	0.0075
610.12	0.0109
610.457	0.008
610.794	0.0061
611.132	0.0043
611.469	0.0036
611.806	0.0029
612.144	0.0014
612.481	0.0054
612.818	0.0064
613.155	0.0087
613.492	0.0056
613.829	0.0074
614.166	0.0041
614.503	0.0036
614.84	0.0006
615.176	0.0026
615.513	0.0064
615.85	0.0076
616.187	0.0074
616.523	0.0065
616.86	0.007
617.196	0.0088
617.533	0.0109
617.869	0.0097
618.205	0.0074
618.542	0.0033
618.878	0.0012
619.214	0.004
619.55	0.0039
619.886	0.0068
620.222	0.0025
620.558	0.0032
620.894	0.0007
621.23	0.0007
621.566	-0.0007
621.902	0.0014
622.238	0.0031
622.573	0.0051
622.909	0.003
623.244	0.0034
623.58	0.0028
623.916	0.0027
624.251	0.0013
624.586	-0.0004
624.922	0.0038
625.257	0.0028
625.592	0.007
625.927	0.0048
626.263	0.0075
626.598	0.0055
626.933	0.005
627.268	0.0049
627.603	0.0032
627.938	0.003
628.272	0.0033
628.607	0.0033
628.942	0.0041
629.277	-0.0007
629.611	-0.0041
629.946	-0.002
630.281	0.0043
630.615	0.007
630.949	0.0055
631.284	0.0042
631.618	0.006
631.953	0.0067
632.287	0.0038
632.621	0.0007
632.955	-0.0012
633.289	0.0037
633.623	0.0045
633.957	0.0087
634.291	0.002
634.625	0.0037
634.959	0.0003
635.293	0.0028
635.627	0.0046
635.96	0.0055
636.294	0.0056
636.627	0.0034
636.961	0.0034
637.294	0.0065
637.628	0.0064
637.961	0.003
638.295	0.001
638.628	0.0027
638.961	0.0046
639.294	0.0046
639.628	0.0028
639.961	0.0018
640.294	-0.003
640.627	-0.0004
640.96	0.0013
641.293	0.0041
641.625	0.0032
641.958	0.0049
642.291	0.004
642.624	0.0046
642.956	0.0016
643.289	0.0086
643.621	0.0019
643.954	0.0026
644.286	-0.0047
644.619	0.0007
644.951	-0.0022
645.283	0.0025
645.616	0.0013
645.948	0.0047
646.28	0.002
646.612	-0.0018
646.944	-0.0034
647.276	-0.0061
647.608	-0.0055
647.94	-0.007
648.272	-0.0045
648.603	-0.0035
648.935	-0.0067
649.267	-0.0079
649.598	-0.0087
649.93	-0.0016
650.261	0.0009
650.593	-0.0011
650.924	-0.0044
651.256	-0.004
651.587	-0.0016
651.918	0.0032
652.25	0.0034
652.581	0.0057
652.912	0.0018
653.243	0.0048
653.574	0.0072
653.905	0.0107
654.236	0.0043
654.567	0.0006
654.897	-0.0054
655.228	-0.006
655.559	-0.0023
655.89	0.0032
656.22	0.0081
656.551	0.0046
656.881	0.0054
657.212	0.0038
657.542	0.0021
657.872	0.003
658.203	0.0016
658.533	0.0181
658.863	0.0169
659.193	0.0104
659.523	0.0054
659.853	-0.0036
660.183	0.0003
660.513	0.0006
660.843	-0.0004
661.173	0.0015
661.503	0.0018
661.833	0.0027
662.162	0.0001
662.492	0.0024
662.822	-0.0015
663.151	-0.0005
663.481	-0.003
663.81	0.0013
664.139	0.0009
664.469	0.0042
664.798	0.0052
665.127	0.0009
665.456	-0.0033
665.785	-0.0056
666.114	-0.0031
666.443	-0.0008
666.772	-0.0005
667.101	-0.0022
667.43	-0.0059
667.759	-0.0027
668.088	-0.0032
668.416	-0.0029
668.745	-0.0059
669.074	-0.0039
669.402	-0.0037
669.731	-0.0036
670.059	-0.0039
670.388	-0.0034
670.716	-0.0025
671.044	-0.0036
671.372	-0.0045
671.701	-0.0036
672.029	-0.0003
672.357	0.0008
672.685	0.0027
673.013	0.0021
673.341	0.0068
673.669	0.0037
673.996	0.006
674.324	0.0052
674.652	0.0086
674.98	0.0061
675.307	0.0038
675.635	0.0037
675.962	0.0025
676.29	0.0041
676.617	-0.0015
676.945	0.0034
677.272	-0.0009
677.599	0.0018
677.926	-0.0037
678.253	-0.0023
678.581	-0.0057
678.908	-0.0031
679.235	-0.0006
679.561	0.0008
679.888	-0.0024
680.215	-0.0011
680.542	-0.0034
680.869	0.0023
681.195	-0.0011
681.522	0.0072
681.849	0.002
682.175	0.0028
682.502	-0.001
682.828	0.0054
683.154	0.0068
683.481	0.0058
683.807	0.0055
684.133	0.0011
684.459	-0.0028
684.785	-0.0031
685.111	-0.0026
685.437	-0.0028
685.763	-0.0059
686.089	-0.0032
686.415	0.0033
686.741	0.0027
687.067	0.001
687.392	-0.003
687.718	-0.0016
688.043	-0.0002
688.369	0.0028
688.694	0.0033
689.02	0.0033
689.345	0.0004
689.67	-0.003
689.996	-0.0002
690.321	0.0061
690.646	0.0074
690.971	0.0039
691.296	0.0008
691.621	0.0022
691.946	-0.0039
692.271	-0.0083
692.596	-0.0044
692.921	0.0033
693.245	0.008
693.57	0.0018
693.895	0.0023
694.219	0.0018
694.544	0.0022
694.868	-0.0022
695.193	-0.0022
695.517	-0.0018
695.841	0.0001
696.166	0
696.49	0.002
696.814	0.0023
697.138	0.0001
697.462	0.0031
697.786	0.0052
698.11	0.0074
698.434	0.0027
698.758	-0.0027
699.081	-0.0085
699.405	-0.0046
699.729	0.0031
700.052	0.0078
700.376	-0.0001
700.7	-0.0045
701.023	-0.0074
701.346	-0.0052
701.67	-0.0024
701.993	0.0021
702.316	0.007
702.639	0.0083
702.963	0.0026
703.286	-0.004
703.609	-0.0025
703.932	-0.0017
704.255	0.0045
704.578	-0.0006
704.9	0.0018
705.223	0.0003
705.546	0.0009
705.868	0.0017
706.191	0.0025
706.514	0.0013
706.836	0.001
707.159	0.0012
707.481	0.0055
707.803	0.0043
708.126	0.0042
708.448	0.0018
708.77	0.0033
709.092	0.0027
709.414	0.0005
709.736	-0.0028
710.058	-0.0043
710.38	-0.0002
710.702	0.0003
711.024	0.0002
711.345	-0.0012
711.667	-0.0034
711.989	-0.002
712.31	-0.0029
712.632	-0.0041
712.953	-0.0079
713.275	-0.0075
713.596	-0.0031
713.917	-0.0033
714.239	-0.002
714.56	-0.0047
714.881	-0.0025
715.202	-0.0019
715.523	0.0036
715.844	0.0073
716.165	0.0064
716.486	0.0063
716.807	0.001
717.128	-0.0015
717.448	-0.0019
717.769	-0.0034
718.09	-0.0012
718.41	-0.0045
718.731	-0.0013
719.051	-0.0013
719.372	-0.0001
719.692	-0.0005
720.012	-0.0018
720.332	-0.0015
720.653	-0.0008
720.973	0.0003
721.293	-0.0005
721.613	-0.0017
721.933	-0.0034
722.253	-0.0016
722.573	0.0003
722.892	-0.0016
723.212	-0.0004
723.532	-0.0043
723.851	-0.0076
724.171	-0.0089
724.491	-0.0086
724.81	-0.0046
725.129	-0.0063
725.449	-0.005
725.768	-0.0032
726.087	-0.0034
726.407	-0.0047
726.726	-0.0055
727.045	-0.0096
727.364	-0.0094
727.683	-0.0087
728.002	-0.0043
728.321	-0.003
728.64	-0.0006
728.958	-0.0005
729.277	-0.0019
729.596	-0.0059
729.914	-0.0099
730.233	-0.0078
730.551	-0.0076
730.87	-0.0054
731.188	-0.004
731.507	-0.0019
731.825	0.0027
732.143	0.0025
732.461	0.0031
732.779	0.0009
733.097	0.0015
733.415	-0.0002
733.733	-0.0011
734.051	-0.0014
734.369	0.0005
734.687	0.002
735.005	0.0029
735.322	0.0034
735.64	0.0032
735.957	0.0012
736.275	-0
736.592	0.0006
736.91	-0.0006
737.227	-0.0009
737.544	0.0014
737.862	0.0031
738.179	0.0032
738.496	0.0036
738.813	0.0014
739.13	0.0002
739.447	-0.0036
739.764	0.0007
740.081	0.0003
740.398	-0.0017
740.714	-0.0072
741.031	-0.0067
741.348	-0.0061
741.664	0.0046
741.981	0.0056
742.297	0.0072
742.614	0.0033
742.93	0.0014
743.246	-0.0019
743.563	-0.0109
743.879	-0.0103
744.195	-0.0089
744.511	-0.0033
744.827	-0.0026
745.143	0
745.459	0.0033
745.775	0.0008
746.091	-0.0028
746.406	-0.0063
746.722	0.0002
747.038	0.0052
747.353	0.0029
747.669	-0.0064
747.984	-0.0104
748.3	-0.0053
748.615	-0.0071
748.93	-0.0004
749.246	-0.0028
749.561	0.0012
749.876	-0.0067
750.191	-0.0063
750.506	-0.0015
750.821	0.0019
751.136	-0.0005
751.451	-0.0021
751.766	0.001
752.08	0.0073
752.395	0.0075
752.71	-0.0001
753.024	0.0008
753.339	-0.0026
753.653	-0.0002
753.968	-0.008
754.282	-0.0053
754.596	-0.0022
754.911	0.0055
755.225	0.0012
755.539	-0.0037
755.853	-0.0075
756.167	-0.0047
756.481	-0.0004
756.795	-0.0023
757.109	-0.0023
757.423	-0.006
757.736	-0.0073
758.05	-0.0056
758.364	-0.004
758.677	-0.0007
758.991	0.0017
759.304	0.0037
759.618	0.0043
759.931	-0.0027
760.244	-0.0004
760.558	-0.0002
760.871	0.0014
761.184	-0.0032
761.497	-0.0051
761.81	-0.002
762.123	0.0024
762.436	0.0017
762.749	0.0024
763.062	-0.0007
763.374	-0.0001
763.687	-0.0024
764	-0.0009
764.312	-0.0018
764.625	0.0002
764.937	-0.0004
765.25	-0.0013
765.562	-0.003
765.874	-0.003
766.186	-0.0012
766.499	0.0016
766.811	0.0035
767.123	0.0061
767.435	0.0053
767.747	0.0071
768.059	0.0019
768.37	0.0052
768.682	-0.0009
768.994	-0.0018
769.306	-0.0103
769.617	-0.01
769.929	-0.005
770.24	-0.0002
770.552	0.0016
770.863	0.0036
771.174	-0.0008
771.486	0.0011
771.797	-0.0004
772.108	0.0024
772.419	0.0034
772.73	0.0029
773.041	-0.0007
773.352	-0.0047
773.663	-0.0053
773.974	-0.0014
774.285	-0.0052
774.595	-0.0019
774.906	-0.0035
775.217	-0.0018
775.527	-0.0066
775.838	-0.0068
776.148	-0.0045
776.458	0.0024
776.769	0.0002
777.079	0.0002
777.389	-0.0056
777.699	-0.0008
778.009	-0.0003
778.319	0.0027
778.629	0.0011
778.939	-0.003
779.249	-0.0055
779.559	-0.007
779.869	-0.0074
780.178	-0.0092
780.488	-0.009
780.798	-0.0045
781.107	-0.0031
781.417	0.0019
781.726	0.0039
782.035	0.0048
782.345	0.0022
782.654	0.0022
782.963	0.0032
783.272	0.0016
783.581	0.0033
783.89	-0.0028
784.199	-0.0025
784.508	-0.0016
784.817	0.0021
785.126	-0.0003
785.434	-0.0057
785.743	-0.007
786.052	-0.0026
786.36	0
786.669	-0.0013
786.977	-0.0014
787.285	-0.0037
787.594	0.0003
787.902	-0.004
788.21	-0.0011
788.518	-0.0015
788.826	0.0019
789.135	-0.0023
789.442	-0.0031
789.75	-0.0035
790.058	0.0003
790.366	-0.0032
790.674	-0.0043
790.981	-0.0051
791.289	-0.0011
791.597	0.0013
791.904	0.0021
792.212	-0.0016
792.519	-0.0051
792.826	-0.0093
793.134	-0.0027
793.441	-0.0018
793.748	-0.0024
794.055	-0.005
794.362	-0.0083
794.669	-0.0093
794.976	-0.0102
795.283	-0.0039
795.59	0.0043
795.897	0.0034
796.203	0.0017
796.51	0.0028
796.817	-0.0033
797.123	-0.0038
797.43	-0.008
797.736	-0.0014
798.042	0.0002
798.349	-0.0001
798.655	-0.0003
798.961	-0.0015
799.267	0
799.573	-0.0058
799.879	-0.0018
800.185	0.002
800.491	0.0079
800.797	-0.0011
801.103	-0.0058
801.408	-0.008
801.714	-0.0106
802.02	-0.0069
802.325	-0.0088
802.631	-0.0014
802.936	-0.0099
803.242	-0.0121
803.547	-0.0055
803.852	0.0025
804.157	0.008
804.462	0.0015
804.768	-0.0009
805.073	0.0021
805.378	-0.0028
805.682	-0.0058
805.987	-0.0122
806.292	-0.0062
806.597	-0.0001
806.902	0.0036
807.206	0.0018
807.511	-0.0011
807.815	0.0017
808.12	0.0095
808.424	0.0134
808.728	0.0113
809.033	0.0074
809.337	0.0076
809.641	0.0075
809.945	0.0013
810.249	-0.0057
810.553	-0.001
810.857	0.0025
811.161	0.011
811.465	0.0044
811.768	-0.004
812.072	-0.0095
812.376	-0.0143
812.679	-0.0074
812.983	-0.0118
813.286	-0.0126
813.59	-0.0187
813.893	-0.0135
814.196	-0.0108
814.499	-0.0095
814.803	-0.0113
815.106	-0.0023
815.409	0.0069
815.712	0.0087
816.015	-0.0003
816.318	-0.0069
816.62	-0.0038
816.923	-0.0018
817.226	0.0014
817.528	-0.003
817.831	-0.0041
818.133	-0.0032
818.436	-0.0014
818.738	0.0035
819.041	0.0047
819.343	0.009
819.645	0.0025
819.947	0.0076
820.249	0.0064
820.551	0.0082
820.853	-0.0023
821.155	-0.0123
821.457	-0.016
821.759	-0.012
822.061	-0.0059
822.362	-0.0037
822.664	-0.0051
822.966	-0.0144
823.267	-0.0097
823.569	-0.0147
823.87	-0.0011
824.171	-0.0048
824.473	0.0015
824.774	-0.0115
825.075	-0.0116
825.376	-0.0171
825.677	-0.0137
825.978	-0.0064
826.279	0.0007
826.58	0.0052
826.881	-0.0032
827.181	-0.0008
827.482	0.0049
827.783	0.0138
828.083	0.0127
828.384	-0.0003
828.684	-0.0083
828.985	-0.019
829.285	-0.0237
829.585	-0.023
829.885	-0.0138
830.185	-0.0002
830.486	0.0066
830.786	0.0067
831.086	-0.0005
831.385	-0.0045
831.685	-0.0073
831.985	-0.0106
832.285	-0.0101
832.585	-0.0069
832.884	-0.0041
833.184	-0.0071
833.483	-0.011
833.783	0.0011
834.082	0.0051
834.381	0.0092
834.681	0.0021
834.98	-0.0054
835.279	-0.0105
835.578	-0.0171
835.877	-0.0043
836.176	-0.0102
836.475	-0.0023
836.774	-0.0132
837.072	-0.0067
837.371	-0.0103
837.67	-0.01
837.968	-0.0064
838.267	-0.0145
838.565	-0.0159
838.864	-0.0097
839.162	-0.0169
839.46	-0.01
839.759	-0.0193
840.057	-0.0058
840.355	-0.0057
840.653	0.0011
840.951	0.005
841.249	0.0086
841.547	-0.0049
841.845	-0.0024
842.142	-0.0114
842.44	-0.0083
842.738	-0.0158
843.035	-0.0069
843.333	0.0058
843.63	0.0006
843.928	-0.007
844.225	-0.0153
844.522	-0.0054
844.82	-0.0057
845.117	-0.0024
845.414	-0.0088
845.711	-0.0008
846.008	-0.002
846.305	0.0051
846.602	-0.0026
846.898	-0.0029
847.195	-0.0147
847.492	-0.0076
847.788	-0.0085
848.085	0.0013
848.382	-0.004
848.678	-0.0033
848.974	0.0091
849.271	0.0149
849.567	0.0061
849.863	-0.0052
850.159	-0.0071
850.455	0.0023
850.751	0.0042
851.047	-0.0075
851.343	-0.0113
851.639	-0.015
851.935	-0.0108
852.23	-0.0085
852.526	0.0008
852.822	0.0028
853.117	0.0044
853.413	-0.0022
853.708	-0.0024
854.003	0.0002
854.299	0.0014
854.594	-0.0139
854.889	-0.024
855.184	-0.0272
855.479	-0.0045
855.774	-0.0012
856.069	0.0052
856.364	-0.0117
856.659	-0.0085
856.954	-0.0143
857.248	0.0002
857.543	-0.0143
857.837	-0.0146
858.132	-0.0175
858.426	-0.0007
858.721	0.0102
859.015	0.0089
859.309	0.0092
859.604	-0.0065
859.898	0.0067
860.192	0.0027
860.486	0.0128
860.78	0.0124
861.074	0.0148
861.367	-0.0038
861.661	-0.0081
861.955	-0.0062
862.248	0.0218
862.542	0.0177
862.836	0.0208
863.129	0.0199
863.422	0.007
863.716	-0.0076
864.009	-0.0187
864.302	-0.0222
864.595	-0.016
864.889	-0.0105
865.182	-0.0103
865.475	-0.0026
865.767	-0.0374
866.06	-0.0342
866.353	-0.0338
866.646	-0.0072
866.938	0.004
867.231	0.0072
867.524	0.0123
867.816	0.0145
868.109	-0.0027
868.401	-0.0127
868.693	-0.0095
868.985	0.0044
869.278	0.0115
869.57	-0.0058
869.862	-0.0125
870.154	-0.0266
870.446	-0.0145
870.738	-0.0073
871.029	-0.0076
871.321	-0.0073
871.613	-0.0043
871.904	0.0099
872.196	0.0058
872.487	-0.0064
872.779	-0.0203
873.07	-0.0145
873.362	-0.0124
873.653	-0.0034
873.944	-0.0016
874.235	-0.0079
874.526	0.0066
874.817	0.0065
875.108	0.0243
875.399	0.0251
875.69	-0
875.981	-0.0266
876.271	-0.0322
876.562	-0.0081
876.853	0.012
877.143	-0.013
877.434	-0.0315
877.724	-0.046
878.014	-0.041
878.305	-0.0514
878.595	-0.0663
878.885	-0.0441
879.175	-0.0281
879.465	0.0146
879.755	-0.003
880.045	-0.0071
880.335	-0.0392
880.624	-0.0433
880.914	-0.0433
