Data from 48SS08LI_071217_1a_Absorbance_22-23-26-474.txt Node
Date: Tue Jul 18 22:23:26 MDT 2017
User: Tank Lab
Spectrometer: FLMS01220
Trigger mode: 0
Integration Time (sec): 1.000000E-1
Scans to average: 10
Electric dark correction enabled: true
Nonlinearity correction enabled: false
Boxcar width: 1
XAxis mode: Wavelengths
Number of Pixels in Spectrum: 2048
>>>>>Begin Spectral Data<<<<<
179.47	1.0641
179.856	1.0641
180.241	0.706
180.626	-0
181.011	-0
181.396	-0
181.781	0.0354
182.166	-0.4075
182.551	0.5353
182.936	0.6938
183.321	-0.1602
183.706	0.2833
184.091	-0
184.476	0.5909
184.86	0.5848
185.245	0.7387
185.63	0.0932
186.015	-0
186.399	-0
186.784	0.3812
187.169	0.396
187.553	0.0688
187.938	0.0208
188.322	0.1116
188.707	0.1157
189.091	0.1018
189.475	0.1069
189.86	0.111
190.244	0.1683
190.629	0.1669
191.013	0.203
191.397	0.2508
191.781	0.3327
192.165	0.3915
192.55	0.3968
192.934	0.409
193.318	0.4361
193.702	0.4812
194.086	0.5025
194.47	0.5249
194.854	0.532
195.238	0.534
195.622	0.5362
196.006	0.5191
196.389	0.5132
196.773	0.5064
197.157	0.5051
197.541	0.5193
197.924	0.5084
198.308	0.4989
198.692	0.4767
199.075	0.4735
199.459	0.4724
199.843	0.4763
200.226	0.4657
200.61	0.4509
200.993	0.4339
201.376	0.4283
201.76	0.4238
202.143	0.4247
202.527	0.4172
202.91	0.412
203.293	0.4019
203.676	0.3992
204.059	0.3917
204.443	0.3894
204.826	0.3829
205.209	0.3787
205.592	0.3709
205.975	0.364
206.358	0.3604
206.741	0.3554
207.124	0.3506
207.507	0.3474
207.89	0.3432
208.273	0.3386
208.655	0.3316
209.038	0.3285
209.421	0.3279
209.804	0.3323
210.186	0.3272
210.569	0.3233
210.951	0.3169
211.334	0.3123
211.717	0.3097
212.099	0.3078
212.482	0.3043
212.864	0.2992
213.246	0.2913
213.629	0.2914
214.011	0.291
214.393	0.2938
214.776	0.2917
215.158	0.2899
215.54	0.2832
215.922	0.2836
216.305	0.2811
216.687	0.2805
217.069	0.2767
217.451	0.2722
217.833	0.2707
218.215	0.2681
218.597	0.264
218.979	0.2611
219.361	0.259
219.742	0.2571
220.124	0.2544
220.506	0.2516
220.888	0.2521
221.27	0.2506
221.651	0.2453
222.033	0.2428
222.415	0.2386
222.796	0.239
223.178	0.2354
223.559	0.2346
223.941	0.232
224.322	0.2303
224.704	0.2277
225.085	0.2245
225.466	0.2215
225.848	0.218
226.229	0.218
226.61	0.2174
226.992	0.2176
227.373	0.2145
227.754	0.2128
228.135	0.2101
228.516	0.2108
228.897	0.2107
229.278	0.2104
229.659	0.2063
230.04	0.2024
230.421	0.1985
230.802	0.1965
231.183	0.1963
231.564	0.1962
231.944	0.1943
232.325	0.1917
232.706	0.1901
233.087	0.1897
233.467	0.1884
233.848	0.1874
234.229	0.1869
234.609	0.1854
234.99	0.1845
235.37	0.1831
235.751	0.1833
236.131	0.1815
236.511	0.1797
236.892	0.1787
237.272	0.1776
237.652	0.1765
238.033	0.1724
238.413	0.171
238.793	0.1689
239.173	0.1681
239.553	0.1687
239.933	0.1691
240.313	0.1695
240.694	0.1669
241.074	0.1648
241.453	0.1641
241.833	0.1633
242.213	0.1631
242.593	0.1617
242.973	0.1607
243.353	0.1595
243.732	0.1585
244.112	0.1582
244.492	0.1574
244.872	0.1575
245.251	0.1568
245.631	0.1561
246.01	0.155
246.39	0.1526
246.769	0.1504
247.149	0.1495
247.528	0.1487
247.908	0.1481
248.287	0.1482
248.666	0.1488
249.045	0.1494
249.425	0.1474
249.804	0.1457
250.183	0.1449
250.562	0.1436
250.941	0.143
251.32	0.1415
251.699	0.1421
252.078	0.1414
252.457	0.1415
252.836	0.1394
253.215	0.1393
253.594	0.1388
253.973	0.139
254.352	0.1385
254.731	0.1392
255.109	0.1382
255.488	0.1371
255.867	0.1339
256.245	0.1332
256.624	0.1324
257.002	0.1321
257.381	0.1307
257.759	0.1317
258.138	0.1327
258.516	0.1347
258.895	0.1332
259.273	0.1321
259.651	0.1301
260.03	0.1308
260.408	0.1291
260.786	0.1287
261.164	0.1271
261.542	0.1275
261.921	0.1273
262.299	0.1264
262.677	0.1262
263.055	0.1263
263.433	0.1252
263.811	0.1248
264.188	0.1222
264.566	0.1222
264.944	0.1217
265.322	0.1227
265.7	0.1229
266.077	0.1214
266.455	0.1196
266.833	0.1189
267.21	0.1184
267.588	0.1191
267.966	0.118
268.343	0.1174
268.721	0.1171
269.098	0.1172
269.475	0.1164
269.853	0.1156
270.23	0.1152
270.607	0.1158
270.985	0.116
271.362	0.1135
271.739	0.1129
272.116	0.1112
272.494	0.1117
272.871	0.1112
273.248	0.1112
273.625	0.1112
274.002	0.1095
274.379	0.1085
274.756	0.1073
275.132	0.1051
275.509	0.1049
275.886	0.1045
276.263	0.1066
276.64	0.1048
277.016	0.1046
277.393	0.1027
277.77	0.1015
278.146	0.1016
278.523	0.1011
278.899	0.1018
279.276	0.1001
279.652	0.0998
280.029	0.0994
280.405	0.0999
280.782	0.1001
281.158	0.0992
281.534	0.0977
281.91	0.0968
282.287	0.0953
282.663	0.0961
283.039	0.097
283.415	0.0976
283.791	0.096
284.167	0.0945
284.543	0.0929
284.919	0.0923
285.295	0.0907
285.671	0.0913
286.047	0.0904
286.423	0.0905
286.799	0.0898
287.174	0.0899
287.55	0.0897
287.926	0.0902
288.301	0.0889
288.677	0.0885
289.053	0.0866
289.428	0.0865
289.804	0.0855
290.179	0.0851
290.555	0.0839
290.93	0.0829
291.305	0.0802
291.681	0.0793
292.056	0.0803
292.431	0.0813
292.806	0.0818
293.182	0.0794
293.557	0.0805
293.932	0.0801
294.307	0.0783
294.682	0.0778
295.057	0.0757
295.432	0.077
295.807	0.075
296.182	0.0755
296.557	0.0747
296.932	0.0744
297.306	0.0743
297.681	0.0739
298.056	0.0757
298.43	0.0757
298.805	0.0748
299.18	0.0711
299.554	0.0691
299.929	0.0691
300.303	0.0698
300.678	0.07
301.052	0.0694
301.427	0.0693
301.801	0.0686
302.175	0.0685
302.55	0.0677
302.924	0.0672
303.298	0.0662
303.672	0.0658
304.046	0.0657
304.421	0.0657
304.795	0.0657
305.169	0.0646
305.543	0.0639
305.917	0.0621
306.291	0.0623
306.664	0.0622
307.038	0.0627
307.412	0.0621
307.786	0.0619
308.16	0.0615
308.533	0.0615
308.907	0.0617
309.281	0.0615
309.654	0.0618
310.028	0.0612
310.401	0.0607
310.775	0.06
311.148	0.0582
311.522	0.0586
311.895	0.0577
312.268	0.0574
312.642	0.0568
313.015	0.0578
313.388	0.0569
313.761	0.0568
314.135	0.055
314.508	0.0552
314.881	0.0543
315.254	0.0546
315.627	0.0559
316	0.0561
316.373	0.0558
316.746	0.0543
317.118	0.0534
317.491	0.0541
317.864	0.054
318.237	0.0538
318.61	0.0517
318.982	0.0519
319.355	0.0514
319.727	0.052
320.1	0.0515
320.473	0.0529
320.845	0.0522
321.218	0.0529
321.59	0.0505
321.962	0.0503
322.335	0.0497
322.707	0.05
323.079	0.0504
323.452	0.0491
323.824	0.0493
324.196	0.0477
324.568	0.0485
324.94	0.0478
325.312	0.0492
325.684	0.0484
326.056	0.047
326.428	0.045
326.8	0.0428
327.172	0.0431
327.544	0.042
327.915	0.0448
328.287	0.0436
328.659	0.0438
329.031	0.0425
329.402	0.0424
329.774	0.0418
330.145	0.0402
330.517	0.0407
330.888	0.0403
331.26	0.0401
331.631	0.0392
332.003	0.0397
332.374	0.0394
332.745	0.0387
333.117	0.0381
333.488	0.0388
333.859	0.0391
334.23	0.0381
334.601	0.037
334.972	0.0357
335.343	0.0362
335.714	0.037
336.085	0.0371
336.456	0.0367
336.827	0.0348
337.198	0.0345
337.569	0.0347
337.94	0.0355
338.31	0.0358
338.681	0.0351
339.052	0.0346
339.422	0.034
339.793	0.0351
340.164	0.0347
340.534	0.0335
340.905	0.0318
341.275	0.033
341.645	0.0346
342.016	0.0346
342.386	0.0344
342.756	0.0329
343.127	0.0326
343.497	0.0318
343.867	0.0331
344.237	0.0322
344.607	0.0322
344.977	0.0317
345.347	0.0315
345.717	0.0299
346.087	0.0295
346.457	0.0292
346.827	0.0292
347.197	0.0283
347.567	0.0273
347.936	0.0286
348.306	0.0296
348.676	0.0308
349.046	0.0303
349.415	0.0296
349.785	0.0289
350.154	0.0282
350.524	0.0285
350.893	0.0291
351.263	0.0287
351.632	0.0276
352.001	0.0269
352.371	0.0269
352.74	0.0257
353.109	0.0251
353.478	0.0257
353.847	0.0258
354.217	0.0263
354.586	0.0253
354.955	0.0275
355.324	0.0268
355.693	0.026
356.062	0.0244
356.43	0.0253
356.799	0.0256
357.168	0.0271
357.537	0.0264
357.906	0.0254
358.274	0.0241
358.643	0.0221
359.011	0.0223
359.38	0.0219
359.749	0.0232
360.117	0.0229
360.486	0.0216
360.854	0.0226
361.222	0.0219
361.591	0.0208
361.959	0.0195
362.327	0.0202
362.695	0.0209
363.064	0.0217
363.432	0.021
363.8	0.0218
364.168	0.0213
364.536	0.0215
364.904	0.0208
365.272	0.02
365.64	0.0204
366.008	0.0213
366.376	0.02
366.743	0.0206
367.111	0.0207
367.479	0.0211
367.847	0.0191
368.214	0.016
368.582	0.0157
368.949	0.0165
369.317	0.0184
369.684	0.0192
370.052	0.0198
370.419	0.0212
370.787	0.0211
371.154	0.0192
371.521	0.018
371.889	0.0165
372.256	0.0163
372.623	0.0139
372.99	0.0127
373.357	0.0135
373.724	0.0154
374.091	0.0146
374.458	0.0131
374.825	0.0105
375.192	0.0134
375.559	0.0142
375.926	0.0152
376.293	0.0154
376.659	0.0154
377.026	0.0167
377.393	0.0145
377.759	0.0137
378.126	0.015
378.492	0.0176
378.859	0.018
379.225	0.0142
379.592	0.0125
379.958	0.0117
380.325	0.0131
380.691	0.0111
381.057	0.0128
381.423	0.0111
381.79	0.0133
382.156	0.0106
382.522	0.0118
382.888	0.01
383.254	0.0103
383.62	0.0121
383.986	0.0136
384.352	0.0135
384.718	0.0117
385.084	0.0133
385.449	0.0147
385.815	0.0133
386.181	0.0128
386.547	0.0123
386.912	0.0117
387.278	0.0098
387.643	0.0101
388.009	0.0115
388.374	0.0106
388.74	0.0108
389.105	0.0109
389.471	0.0121
389.836	0.0117
390.201	0.0124
390.566	0.0137
390.932	0.0141
391.297	0.0143
391.662	0.0118
392.027	0.01
392.392	0.0081
392.757	0.0087
393.122	0.0102
393.487	0.0118
393.852	0.0118
394.217	0.0111
394.582	0.0116
394.946	0.0131
395.311	0.0147
395.676	0.0162
396.04	0.0113
396.405	0.0107
396.77	0.009
397.134	0.0122
397.499	0.0106
397.863	0.0076
398.227	0.0053
398.592	0.0051
398.956	0.006
399.32	0.0086
399.685	0.0081
400.049	0.0103
400.413	0.0123
400.777	0.0121
401.141	0.0142
401.505	0.0111
401.869	0.0111
402.233	0.0047
402.597	0.0045
402.961	0.0029
403.325	0.006
403.689	0.0082
404.053	0.0107
404.416	0.0089
404.78	0.0085
405.144	0.0078
405.507	0.0085
405.871	0.0053
406.234	0.0068
406.598	0.0065
406.961	0.0097
407.325	0.0087
407.688	0.0074
408.051	0.0066
408.415	0.0056
408.778	0.008
409.141	0.0063
409.504	0.0077
409.867	0.0057
410.23	0.0046
410.593	0.0028
410.956	0.0049
411.319	0.0076
411.682	0.0089
412.045	0.0078
412.408	0.0067
412.771	0.0065
413.134	0.0079
413.496	0.0082
413.859	0.0085
414.222	0.0061
414.584	0.0061
414.947	0.0064
415.309	0.0065
415.672	0.0082
416.034	0.0071
416.396	0.0089
416.759	0.0086
417.121	0.009
417.483	0.0073
417.846	0.0063
418.208	0.0066
418.57	0.0073
418.932	0.0062
419.294	0.0048
419.656	0.0044
420.018	0.0048
420.38	0.0051
420.742	0.0055
421.104	0.0046
421.466	0.0035
421.827	0.0057
422.189	0.0057
422.551	0.0071
422.912	0.005
423.274	0.007
423.636	0.007
423.997	0.0064
424.359	0.0049
424.72	0.0047
425.081	0.004
425.443	0.001
425.804	0.0005
426.165	-0.0004
426.527	0.002
426.888	0.0031
427.249	0.0053
427.61	0.0062
427.971	0.0041
428.332	0.0053
428.693	0.0038
429.054	0.0045
429.415	0.0028
429.776	0.0035
430.137	0.0028
430.498	0.0039
430.858	0.0059
431.219	0.0094
431.58	0.0061
431.94	0.005
432.301	0.0053
432.661	0.0052
433.022	0.0049
433.382	0.0055
433.743	0.0054
434.103	0.0048
434.463	-0.0015
434.824	-0.0007
435.184	-0.0018
435.544	-0.0004
435.904	0.001
436.264	0.0016
436.624	0.0028
436.985	0.001
437.345	0.003
437.704	0.0031
438.064	0.0053
438.424	0.0014
438.784	0.0029
439.144	0.0049
439.504	0.0057
439.863	0.0009
440.223	-0.0025
440.583	-0.0022
440.942	0.003
441.302	0.003
441.661	0.0032
442.021	0.0015
442.38	0.0025
442.739	0.0034
443.099	0.0022
443.458	-0.0001
443.817	0.0013
444.176	0.0039
444.536	0.006
444.895	0.0051
445.254	0.0041
445.613	0.0055
445.972	0.0058
446.331	0.0051
446.69	0.0009
447.049	0.001
447.407	0.0007
447.766	0.0033
448.125	0.0041
448.484	0.0038
448.842	0.0065
449.201	0.0053
449.559	0.0057
449.918	0.0028
450.276	0.0013
450.635	0.0011
450.993	-0.0003
451.352	-0.0004
451.71	-0.0023
452.068	0.0007
452.426	0.0024
452.785	0.0036
453.143	0.0027
453.501	0.0019
453.859	0.0014
454.217	-0.0007
454.575	-0.001
454.933	0.001
455.291	0.0049
455.649	0.0037
456.006	0.0023
456.364	0.0011
456.722	0.0005
457.079	0.0029
457.437	0.0025
457.795	0.0072
458.152	0.0045
458.51	0.0045
458.867	0.001
459.225	0.0038
459.582	0.0053
459.939	0.0031
460.297	0.0018
460.654	-0.0007
461.011	0.0028
461.368	0.003
461.725	0.0047
462.082	0.0047
462.44	0.004
462.797	0.0003
463.153	0.0005
463.51	0
463.867	0.0029
464.224	0.0007
464.581	-0.0009
464.938	-0.0023
465.294	-0.0003
465.651	0.0007
466.008	0.0019
466.364	-0.001
466.721	0.0015
467.077	0.0014
467.434	0.0038
467.79	0.0053
468.146	0.0054
468.503	0.0112
468.859	0.0044
469.215	-0.0004
469.571	-0.0072
469.927	-0.0039
470.284	-0.0021
470.64	0.0022
470.996	0.0047
471.352	0.0087
471.707	0.0044
472.063	0.0019
472.419	0.0006
472.775	-0.0023
473.131	0.0031
473.486	0.0038
473.842	0.0067
474.198	0.0028
474.553	0.0034
474.909	0.005
475.264	0.0058
475.62	0.0057
475.975	0.0041
476.331	0.0018
476.686	0.0016
477.041	0.0028
477.396	0.0065
477.752	0.0071
478.107	0.0058
478.462	0.0007
478.817	-0.0013
479.172	0.0017
479.527	0.0044
479.882	0.0039
480.237	0.0018
480.591	0.0015
480.946	0.0015
481.301	0.0007
481.656	-0.0018
482.01	-0.0017
482.365	-0.0048
482.72	-0.0009
483.074	-0.001
483.429	0.0022
483.783	-0.0005
484.137	0.0036
484.492	0.0036
484.846	0.004
485.2	-0.0018
485.555	-0.0046
485.909	-0.0049
486.263	-0.0027
486.617	-0.0036
486.971	-0.0021
487.325	-0.0002
487.679	0.0037
488.033	0.0005
488.387	0.0064
488.741	0.0064
489.094	0.0031
489.448	-0.0035
489.802	0.0001
490.156	0.0049
490.509	-0.0001
490.863	-0.006
491.216	-0.0034
491.57	0.0001
491.923	0.0024
492.277	-0.0005
492.63	-0.0001
492.983	-0.0014
493.337	-0.0022
493.69	0.0002
494.043	0.0004
494.396	0.0024
494.749	0.0007
495.102	-0.0006
495.455	-0.0023
495.808	-0.005
496.161	-0.0023
496.514	-0.002
496.867	0.0004
497.22	-0.0016
497.572	-0.0028
497.925	-0.0013
498.278	-0.0005
498.63	0.0036
498.983	0.0017
499.335	0.0033
499.688	-0.0042
500.04	-0.0053
500.393	-0.0089
500.745	-0.0044
501.097	-0.0011
501.449	-0.0007
501.802	-0.0014
502.154	-0.0016
502.506	-0.0029
502.858	-0.0026
503.21	-0.0053
503.562	-0.0016
503.914	0.0028
504.266	0.005
504.618	0.0015
504.969	0.0007
505.321	-0.0063
505.673	-0.0034
506.025	-0.0047
506.376	0.0022
506.728	-0.0007
507.079	-0.0031
507.431	-0.0042
507.782	-0.0025
508.134	0.0019
508.485	0.0014
508.836	-0.0008
509.188	-0.0028
509.539	-0.0032
509.89	-0.0031
510.241	-0.0062
510.592	-0.0013
510.943	-0.0023
511.294	-0.0012
511.645	-0.0091
511.996	-0.005
512.347	-0.0011
512.698	0.0039
513.049	0.003
513.399	-0.0019
513.75	-0.0051
514.101	-0.0047
514.451	-0.0037
514.802	-0.0006
515.152	-0.0013
515.503	0.0016
515.853	-0.0032
516.203	-0.0042
516.554	-0.0065
516.904	-0.0022
517.254	-0.0027
517.604	-0.0027
517.955	-0.0058
518.305	-0.001
518.655	-0.0015
519.005	0.0019
519.355	0.0032
519.705	0.0025
520.055	0.001
520.404	-0.0021
520.754	0.001
521.104	0.0034
521.454	0.0022
521.803	0.0024
522.153	-0.0033
522.502	-0.005
522.852	-0.0076
523.201	-0.0069
523.551	-0.0046
523.9	-0.0026
524.249	0.0038
524.599	0.0027
524.948	0.0009
525.297	-0.0027
525.646	-0.0045
525.995	-0.0054
526.344	-0.0054
526.694	-0.0024
527.042	-0.0016
527.391	-0.0014
527.74	0.0004
528.089	-0.0009
528.438	-0.0016
528.787	-0.0032
529.135	-0.0008
529.484	0.0029
529.833	0.0041
530.181	0.0031
530.53	-0.002
530.878	-0.0028
531.227	-0.0003
531.575	0.0043
531.923	0.0008
532.271	-0.0037
532.62	-0.0063
532.968	-0.0054
533.316	-0.005
533.664	-0.0035
534.012	-0.0009
534.36	0.0043
534.708	0.0008
535.056	-0.0015
535.404	-0.0094
535.752	-0.0071
536.1	-0.0061
536.447	-0.0028
536.795	-0.0015
537.143	-0.0025
537.49	-0.0017
537.838	-0.0052
538.185	-0.0037
538.533	-0.0032
538.88	0.0002
539.228	-0.0023
539.575	-0.0025
539.922	-0.0066
540.269	0.0004
540.617	0.0008
540.964	0.0014
541.311	-0.0037
541.658	-0.0032
542.005	-0.0003
542.352	-0.0001
542.699	-0.0018
543.045	-0.0044
543.392	-0.0039
543.739	-0.0052
544.086	-0.0027
544.432	-0.0044
544.779	0.0002
545.126	-0.0022
545.472	-0.0023
545.819	-0.0064
546.165	-0.0046
546.512	-0.0024
546.858	0.0004
547.204	0.0011
547.55	-0.0017
547.897	-0.0026
548.243	-0.0084
548.589	-0.0043
548.935	-0.0077
549.281	-0.0037
549.627	-0.0075
549.973	-0.0036
550.319	-0.0036
550.665	0.0009
551.01	-0.0037
551.356	-0.0084
551.702	-0.0127
552.048	-0.0167
552.393	-0.0113
552.739	-0.0079
553.084	0
553.43	-0.0017
553.775	-0.0037
554.12	-0.0052
554.466	0.0016
554.811	0.0019
555.156	0.0017
555.502	-0.0009
555.847	-0.0033
556.192	-0.0035
556.537	-0.0087
556.882	-0.0082
557.227	-0.0127
557.572	-0.0072
557.917	-0.0002
558.261	-0.0031
558.606	-0.0078
558.951	-0.0133
559.295	-0.0107
559.64	-0.0082
559.985	-0.0079
560.329	-0.0052
560.674	-0.0054
561.018	-0.0081
561.363	-0.008
561.707	-0.0099
562.051	-0.0082
562.395	0.001
562.74	0.003
563.084	0.0034
563.428	0.0001
563.772	-0.0001
564.116	-0.0014
564.46	-0.0037
564.804	0.0006
565.148	-0.0042
565.492	-0.0001
565.835	0.0018
566.179	0.0074
566.523	-0.0021
566.866	-0.0097
567.21	-0.0113
567.554	-0.0042
567.897	-0.0005
568.24	-0.0039
568.584	-0.0086
568.927	-0.0079
569.271	-0.0056
569.614	-0.0019
569.957	-0.0048
570.3	-0.002
570.643	-0.0017
570.986	-0.002
571.329	0.0035
571.672	0.0051
572.015	0.0016
572.358	-0.0039
572.701	-0.0009
573.044	-0.0034
573.387	-0.0033
573.729	-0.0039
574.072	0.0017
574.414	0.0028
574.757	0.0033
575.099	-0.0107
575.442	-0.0166
575.784	-0.0061
576.127	0.005
576.469	0.0036
576.811	-0.0074
577.153	-0.0053
577.496	-0.0032
577.838	-0.0019
578.18	-0.016
578.522	-0.0166
578.864	-0.0184
579.206	0.0039
579.548	0.0046
579.889	-0.0067
580.231	0.0027
580.573	0.0105
580.915	0.0079
581.256	-0.0115
581.598	-0.0265
581.939	-0.0271
582.281	-0.0049
582.622	-0.0075
582.964	-0.0022
583.305	-0.0132
583.646	-0.0021
583.988	0.0292
584.329	0.014
584.67	0.0029
585.011	-0.0238
585.352	-0.028
585.693	-0.0183
586.034	-0.0218
586.375	-0.0185
586.716	-0.0149
587.057	-0.0099
587.398	0.0067
587.738	0.0144
588.079	0.0054
588.42	-0.0015
588.76	-0.0206
589.101	-0.0172
589.441	-0.0223
589.782	-0.0078
590.122	0.0032
590.463	0.0043
590.803	-0.0061
591.143	-0.0084
591.483	-0.0135
591.823	-0.015
592.164	-0.0196
592.504	-0.0063
592.844	-0.004
593.184	-0.005
593.523	-0.0169
593.863	-0.0139
594.203	-0.0084
594.543	0.0019
594.883	-0.0056
595.222	0.0008
595.562	0.0143
595.901	0.0127
596.241	-0.001
596.58	-0.0168
596.92	-0.0218
597.259	-0.0237
597.599	-0.0155
597.938	0.001
598.277	0.0011
598.616	-0.0108
598.955	-0.0183
599.295	-0.0126
599.634	-0.0003
599.973	0.0042
600.312	0.0073
600.65	-0.0047
600.989	-0.0062
601.328	-0.0004
601.667	0.0187
602.005	0.0055
602.344	-0.0043
602.683	-0.0068
603.021	-0.0004
603.36	-0.0066
603.698	-0.0167
604.037	-0.0183
604.375	-0.0141
604.713	-0.0163
605.052	-0.0131
605.39	-0.012
605.728	-0.0083
606.066	0.008
606.404	0.0105
606.742	0.0029
607.08	-0.0048
607.418	-0.0143
607.756	-0.0066
608.094	-0.0053
608.431	0.0003
608.769	0.0064
609.107	-0.0067
609.444	-0.0002
609.782	-0.0095
610.12	0.0009
610.457	-0.0065
610.794	-0.0205
611.132	-0.0214
611.469	-0.0216
611.806	-0.0139
612.144	-0.0204
612.481	-0.0116
612.818	0.0002
613.155	-0.0065
613.492	-0.0108
613.829	-0.013
614.166	-0.0022
614.503	-0.0051
614.84	-0.009
615.176	-0.0109
615.513	-0.0066
615.85	-0.0047
616.187	0.0021
616.523	-0.0043
616.86	-0.0069
617.196	-0.0005
617.533	0.0152
617.869	0.0085
618.205	-0.0066
618.542	-0.0221
618.878	-0.0265
619.214	-0.0141
619.55	-0.0106
619.886	-0.0077
620.222	-0.0186
620.558	-0.0121
620.894	0.0003
621.23	-0.0027
621.566	-0.0083
621.902	-0.0166
622.238	-0.0171
622.573	-0.0038
622.909	-0.0065
623.244	-0.0026
623.58	-0.0205
623.916	-0.019
624.251	-0.0072
624.586	0.0103
624.922	0.0078
625.257	-0.0107
625.592	-0.0208
625.927	-0.0177
626.263	-0.0141
626.598	-0.0109
626.933	-0.0069
627.268	0.0003
627.603	-0.0075
627.938	-0.0158
628.272	-0.0137
628.607	-0.0129
628.942	-0.0091
629.277	-0.015
629.611	-0.0038
629.946	0.0041
630.281	0.0006
630.615	-0.0051
630.949	-0.0169
631.284	-0.0157
631.618	-0.0083
631.953	-0.0018
632.287	-0.0005
632.621	-0.0119
632.955	-0.0127
633.289	-0.0115
633.623	-0.0091
633.957	-0.009
634.291	-0.0112
634.625	-0.003
634.959	-0.0104
635.293	-0.0027
635.627	-0.0071
635.96	-0.0033
636.294	-0.0115
636.627	-0.0099
636.961	-0.0037
637.294	-0.0028
637.628	-0.0089
637.961	-0.0071
638.295	-0.0021
638.628	0.0041
638.961	0.0026
639.294	-0.0007
639.628	-0.0057
639.961	-0.0139
640.294	-0.0132
640.627	-0.0092
640.96	-0.0025
641.293	0
641.625	-0.0051
641.958	-0.0066
642.291	-0.0132
642.624	-0.0132
642.956	-0.0171
643.289	-0.0144
643.621	-0.0094
643.954	-0.0047
644.286	-0.0014
644.619	-0.0055
644.951	-0.0052
645.283	-0.0101
645.616	-0.0091
645.948	-0.0085
646.28	-0.0025
646.612	-0.0026
646.944	-0.0026
647.276	-0.0087
647.608	-0.006
647.94	-0.0087
648.272	-0.0068
648.603	-0.0126
648.935	-0.0101
649.267	-0.0093
649.598	-0.0055
649.93	-0.0095
650.261	-0.0063
650.593	-0.0025
650.924	0.0085
651.256	0.0071
651.587	0.0013
651.918	-0.0069
652.25	-0.0101
652.581	-0.0101
652.912	-0.0148
653.243	-0.0143
653.574	-0.0098
653.905	-0.0028
654.236	-0.0056
654.567	-0.0071
654.897	-0.0107
655.228	-0.0115
655.559	-0.0058
655.89	-0.0039
656.22	-0.0012
656.551	-0.0112
656.881	-0.0141
657.212	-0.0121
657.542	-0.004
657.872	0.0084
658.203	0.0149
658.533	0.1127
658.863	0.053
659.193	0.0066
659.523	-0.0466
659.853	-0.0949
660.183	-0.058
660.513	-0.0288
660.843	-0.0135
661.173	-0.0083
661.503	-0.0069
661.833	-0.0079
662.162	-0.0093
662.492	-0.0103
662.822	-0.0072
663.151	-0.0058
663.481	-0.0032
663.81	-0.0038
664.139	0.0019
664.469	-0.004
664.798	-0.0041
665.127	-0.0068
665.456	-0.0014
665.785	0
666.114	-0.0039
666.443	-0.0064
666.772	-0.0066
667.101	-0.0037
667.43	-0.002
667.759	-0.0033
668.088	-0.0054
668.416	-0.0114
668.745	-0.0083
669.074	-0.0081
669.402	0.0009
669.731	-0.0031
670.059	-0.0027
670.388	-0.0088
670.716	-0.0063
671.044	-0.0048
671.372	-0.0047
671.701	-0.0061
672.029	0.0001
672.357	0.0041
672.685	0.0051
673.013	0.0011
673.341	-0.0049
673.669	-0.0093
673.996	-0.0086
674.324	0.0092
674.652	0.0089
674.98	0.0064
675.307	-0.0051
675.635	-0.0088
675.962	-0.0082
676.29	-0.0116
676.617	-0.0098
676.945	-0.0099
677.272	-0.0118
677.599	-0.0067
677.926	-0.0103
678.253	-0.006
678.581	-0.0125
678.908	-0.0069
679.235	-0.0018
679.561	-0.0021
679.888	-0.0119
680.215	-0.0146
680.542	0.0015
680.869	0.004
681.195	-0.001
681.522	-0.0109
681.849	-0.0062
682.175	0.0004
682.502	0.0038
682.828	-0.0012
683.154	-0.007
683.481	-0.0084
683.807	-0.0101
684.133	0.0014
684.459	-0.0012
684.785	0.0045
685.111	-0.0077
685.437	-0.0092
685.763	-0.0148
686.089	-0.0094
686.415	-0.0026
686.741	-0.0022
687.067	0.0009
687.392	-0.0016
687.718	0.004
688.043	0.0064
688.369	0.0065
688.694	-0.0006
689.02	-0.007
689.345	-0.0135
689.67	-0.0105
689.996	-0.0085
690.321	-0.0034
690.646	-0.0047
690.971	-0.005
691.296	-0.0038
691.621	-0.0014
691.946	0.001
692.271	0.0039
692.596	-0.0004
692.921	-0.004
693.245	-0.0104
693.57	-0.0014
693.895	0.0066
694.219	0.0062
694.544	-0.0023
694.868	-0.011
695.193	-0.0079
695.517	-0.0011
695.841	-0.0006
696.166	-0.0036
696.49	-0.0055
696.814	-0.009
697.138	-0.0088
697.462	-0.007
697.786	-0.0017
698.11	0.0044
698.434	-0.0037
698.758	-0.0109
699.081	-0.0205
699.405	-0.0122
699.729	0.0117
700.052	0.0088
700.376	0.0019
700.7	-0.016
701.023	-0.0162
701.346	-0.0148
701.67	-0.0141
701.993	-0.0145
702.316	-0.0096
702.639	-0.0023
702.963	-0.0007
703.286	-0.0048
703.609	-0.0048
703.932	-0.0073
704.255	-0.0096
704.578	-0.0079
704.9	-0.003
705.223	0.0014
705.546	-0.005
705.868	-0.0096
706.191	-0.0111
706.514	-0.0135
706.836	-0.0087
707.159	-0.004
707.481	0.0003
707.803	-0.0035
708.126	-0.0081
708.448	-0.0046
708.77	-0.0001
709.092	0.0038
709.414	0.0073
709.736	0.0068
710.058	0.0009
710.38	-0.0062
710.702	-0.0096
711.024	-0.0129
711.345	-0.0148
711.667	-0.0157
711.989	-0.0113
712.31	-0.0084
712.632	-0.0036
712.953	-0.0036
713.275	-0.0021
713.596	-0.0027
713.917	-0.0058
714.239	-0.0134
714.56	-0.0158
714.881	-0.0085
715.202	-0.0013
715.523	0.0072
715.844	-0.0041
716.165	-0.0002
716.486	-0.008
716.807	-0.0013
717.128	-0.0043
717.448	-0.0052
717.769	-0.0092
718.09	-0.0117
718.41	-0.0151
718.731	-0.0119
719.051	-0.012
719.372	-0.0089
719.692	-0.0025
720.012	0.0017
720.332	-0.0029
720.653	-0.0054
720.973	-0.0005
721.293	-0.0029
721.613	-0.0132
721.933	-0.0202
722.253	-0.0146
722.573	-0.0091
722.892	-0.0089
723.212	-0.0087
723.532	-0.0076
723.851	-0.0083
724.171	-0.0067
724.491	-0.0022
724.81	-0.002
725.129	-0.0023
725.449	-0.0053
725.768	-0.003
726.087	-0.0017
726.407	-0.0043
726.726	-0.01
727.045	-0.016
727.364	-0.0093
727.683	-0.007
728.002	0.0015
728.321	-0.0051
728.64	-0.0097
728.958	-0.0091
729.277	-0.0081
729.596	-0.0057
729.914	-0.0085
730.233	-0.005
730.551	0.0027
730.87	-0.0006
731.188	-0.0057
731.507	-0.014
731.825	-0.0142
732.143	-0.0123
732.461	-0.0073
732.779	-0.0044
733.097	-0.0038
733.415	0.0024
733.733	0.0094
734.051	-0.0009
734.369	-0.0079
734.687	-0.0235
735.005	-0.0178
735.322	-0.0149
735.64	-0.0008
735.957	0.0026
736.275	0.0007
736.592	-0.0001
736.91	-0.0008
737.227	-0.0004
737.544	-0.0128
737.862	-0.0122
738.179	-0.012
738.496	-0.0031
738.813	-0.0106
739.13	-0.0207
739.447	-0.0208
739.764	-0.0128
740.081	-0.0068
740.398	-0.0132
740.714	-0.0121
741.031	-0.0101
741.348	-0.0039
741.664	-0.001
741.981	0.0096
742.297	0.0059
742.614	-0.0037
742.93	-0.0148
743.246	-0.0136
743.563	-0.0073
743.879	-0.0076
744.195	-0.0094
744.511	-0.0098
744.827	-0.0101
745.143	-0.0057
745.459	-0.0025
745.775	-0.0041
746.091	-0.0053
746.406	-0.0099
746.722	-0.0087
747.038	-0.0105
747.353	-0.0058
747.669	-0.0053
747.984	-0.0088
748.3	-0.0016
748.615	0.0033
748.93	0.0094
749.246	-0.0089
749.561	-0.012
749.876	-0.0095
750.191	-0.0023
750.506	-0.0034
750.821	-0.0094
751.136	-0.0079
751.451	-0.0067
751.766	-0.007
752.08	-0.0014
752.395	0.0029
752.71	0.0022
753.024	-0.0063
753.339	-0.0119
753.653	-0.0087
753.968	-0
754.282	0.0074
754.596	0.0037
754.911	-0.0064
755.225	-0.0072
755.539	-0.0083
755.853	-0.0085
756.167	-0.0108
756.481	-0.0078
756.795	-0.01
757.109	-0.0133
757.423	-0.0128
757.736	-0.0091
758.05	-0.0068
758.364	-0.0038
758.677	-0.0044
758.991	-0.0063
759.304	-0.0039
759.618	0.002
759.931	-0.0006
760.244	-0.0009
760.558	-0.0086
760.871	-0.0103
761.184	-0.0223
761.497	-0.0218
761.81	-0.0179
762.123	-0.0071
762.436	-0.0036
762.749	-0.0077
763.062	-0.0075
763.374	-0.0016
763.687	-0.001
764	-0.0018
764.312	-0.0136
764.625	-0.0118
764.937	-0.0165
765.25	-0.0126
765.562	-0.0052
765.874	-0.0047
766.186	-0.0013
766.499	-0.0107
766.811	-0.007
767.123	0.0025
767.435	0.0051
767.747	0.0054
768.059	-0.0087
768.37	-0.0089
768.682	-0.015
768.994	-0.0126
769.306	-0.0124
769.617	-0.007
769.929	-0.0044
770.24	-0.0094
770.552	-0.0084
770.863	-0.0051
771.174	-0.0022
771.486	-0.0053
771.797	-0.011
772.108	-0.0167
772.419	-0.0203
772.73	-0.0142
773.041	-0.0051
773.352	0.0008
773.663	-0.0057
773.974	-0.005
774.285	-0.0129
774.595	-0.0089
774.906	-0.0091
775.217	-0.0011
775.527	-0.0035
775.838	-0.0067
776.148	-0.0067
776.458	-0.0043
776.769	-0.0063
777.079	-0.0081
777.389	-0.0091
777.699	-0.003
778.009	-0.0043
778.319	-0.0072
778.629	-0.0165
778.939	-0.014
779.249	-0.0133
779.559	-0.0067
779.869	-0.0085
780.178	-0.0068
780.488	-0.0131
780.798	-0.0118
781.107	-0.0074
781.417	0.0037
781.726	-0.0007
782.035	-0.0027
782.345	-0.0097
782.654	-0.009
782.963	-0.0101
783.272	-0.0079
783.581	0.0036
783.89	0.0064
784.199	-0.0022
784.508	-0.0141
784.817	-0.0245
785.126	-0.0208
785.434	-0.0156
785.743	-0.0139
786.052	-0.0105
786.36	-0.0119
786.669	-0.0101
786.977	-0.0091
787.285	-0.0046
787.594	-0.0018
787.902	-0.0003
788.21	-0.0063
788.518	-0.0012
788.826	-0.0027
789.135	-0.0005
789.442	-0.0101
789.75	-0.0138
790.058	-0.0158
790.366	-0.0113
790.674	-0.0107
790.981	-0.0044
791.289	0.0005
791.597	-0.0014
791.904	-0.0087
792.212	-0.0143
792.519	-0.0126
792.826	-0.0034
793.134	-0.0035
793.441	-0.0051
793.748	-0.0063
794.055	-0.0013
794.362	0.0068
794.669	-0.0028
794.976	-0.0062
795.283	-0.0189
795.59	-0.0114
795.897	-0.0136
796.203	-0.0102
796.51	0.0007
796.817	0.0083
797.123	0.0008
797.43	-0.0126
797.736	-0.0158
798.042	-0.0146
798.349	-0.0109
798.655	-0.0166
798.961	-0.0079
799.267	-0.008
799.573	-0.0024
799.879	-0.0024
800.185	0.0032
800.491	-0.0018
800.797	-0.0033
801.103	-0.0121
801.408	-0.0095
801.714	-0.0028
802.02	-0.002
802.325	0.0001
802.631	-0.0065
802.936	-0.0059
803.242	-0.0074
803.547	-0.0088
803.852	-0.0088
804.157	-0.0083
804.462	-0.0054
804.768	-0.0056
805.073	-0.0047
805.378	-0.0004
805.682	-0.0023
805.987	-0.0074
806.292	-0.0163
806.597	-0.0143
806.902	-0.0128
807.206	-0.0157
807.511	-0.0143
807.815	-0.0125
808.12	-0.0012
808.424	-0.002
808.728	-0.0005
809.033	0.0019
809.337	-0.0016
809.641	-0.0136
809.945	-0.0174
810.249	-0.0173
810.553	-0.0102
810.857	-0.0077
811.161	-0.0063
811.465	-0.0039
811.768	-0.0082
812.072	-0.0128
812.376	-0.0125
812.679	-0.0053
812.983	-0.0019
813.286	-0.0039
813.59	-0.0119
813.893	-0.0082
814.196	-0.0103
814.499	-0.0036
814.803	-0.008
815.106	-0.0067
815.409	-0.0155
815.712	-0.0103
816.015	-0.0048
816.318	0.0026
816.62	0.0031
816.923	-0.0093
817.226	-0.0159
817.528	-0.0169
817.831	-0.0066
818.133	-0.0065
818.436	-0.0101
818.738	-0.0114
819.041	-0.0132
819.343	-0.0098
819.645	-0.0074
819.947	0.0022
820.249	-0.0044
820.551	-0.0057
820.853	-0.0149
821.155	-0.0076
821.457	-0.0115
821.759	-0.0095
822.061	-0.0117
822.362	-0.0125
822.664	-0.0117
822.966	-0.0053
823.267	-0.0007
823.569	0.0006
823.87	-0.0142
824.171	-0.0224
824.473	-0.0261
824.774	-0.0239
825.075	-0.0215
825.376	-0.0139
825.677	0.0018
825.978	0.0113
826.279	0.0037
826.58	-0.0069
826.881	-0.0162
827.181	-0.0244
827.482	-0.0317
827.783	-0.0221
828.083	-0.0152
828.384	-0.0095
828.684	-0.0216
828.985	-0.0153
829.285	-0.005
829.585	-0.0004
829.885	-0.0012
830.185	-0.0053
830.486	-0.0019
830.786	-0.01
831.086	-0.0191
831.385	-0.0172
831.685	-0.017
831.985	-0.0123
832.285	-0.026
832.585	-0.0205
832.884	-0.0259
833.184	-0.0242
833.483	-0.0259
833.783	-0.0223
834.082	-0.0088
834.381	-0.0047
834.681	-0.0072
834.98	-0.0174
835.279	-0.0188
835.578	-0.0144
835.877	-0.0212
836.176	-0.0181
836.475	-0.0201
836.774	-0.0087
837.072	-0.0113
837.371	-0.0021
837.67	-0
837.968	-0.0036
838.267	-0.0116
838.565	-0.019
838.864	-0.0237
839.162	-0.0325
839.46	-0.0338
839.759	-0.0282
840.057	-0.0135
840.355	-0.0017
840.653	0.001
840.951	-0.0001
841.249	-0.0211
841.547	-0.0246
841.845	-0.0243
842.142	-0.0142
842.44	-0.0146
842.738	-0.0164
843.035	-0.0059
843.333	-0.0017
843.63	0.0008
843.928	0.0071
844.225	-0.0006
844.522	-0.0093
844.82	-0.0292
845.117	-0.0254
845.414	-0.0118
845.711	-0.0072
846.008	-0.0113
846.305	-0.0175
846.602	-0.0083
846.898	-0.0178
847.195	-0.0239
847.492	-0.0274
847.788	-0.0106
848.085	-0.0117
848.382	-0.0109
848.678	-0.0139
848.974	0.0015
849.271	-0.0046
849.567	-0.0043
849.863	-0.0216
850.159	-0.0141
850.455	-0.0149
850.751	-0.0049
851.047	-0.0117
851.343	0.0009
851.639	-0.0009
851.935	0.0098
852.23	0.0048
852.526	-0.0072
852.822	0.0007
853.117	0.005
853.413	0.0023
853.708	-0.0139
854.003	-0.0116
854.299	-0.0236
854.594	-0.0174
854.889	-0.0307
855.184	-0.0156
855.479	-0.023
855.774	-0.0245
856.069	-0.0172
856.364	-0.0172
856.659	-0.0059
856.954	-0.0049
857.248	-0.0054
857.543	-0.0123
857.837	-0.0205
858.132	-0.0053
858.426	-0.009
858.721	-0.0122
859.015	-0.0282
859.309	-0.02
859.604	-0.0223
859.898	-0.0173
860.192	-0.0308
860.486	-0.0288
860.78	-0.0459
861.074	-0.0426
861.367	-0.0367
861.661	-0.0117
861.955	-0.0151
862.248	-0.0041
862.542	-0.0447
862.836	-0.0515
863.129	-0.0487
863.422	-0.0451
863.716	-0.0358
864.009	-0.0577
864.302	-0.0153
864.595	-0.0011
864.889	0.0139
865.182	-0.0013
865.475	0.0011
865.767	-0.0065
866.06	-0.0156
866.353	-0.0467
866.646	-0.0273
866.938	-0.0206
867.231	-0.0195
867.524	-0.0306
867.816	-0.0134
868.109	0.0028
868.401	-0.0217
868.693	-0.0287
868.985	-0.0201
869.278	0.0168
869.57	-0.0017
869.862	-0.0256
870.154	-0.0453
870.446	-0.0199
870.738	-0.0302
871.029	-0.0304
871.321	-0.0491
871.613	-0.025
871.904	-0.0376
872.196	-0.0224
872.487	-0.0606
872.779	-0.0544
873.07	-0.0593
873.362	-0.0361
873.653	-0.0518
873.944	-0.0489
874.235	-0.0389
874.526	-0.0164
874.817	-0.0087
875.108	-0.0408
875.399	-0.0154
875.69	-0.0222
875.981	0.0084
876.271	0.001
876.562	-0.0269
876.853	-0.0244
877.143	-0.0492
877.434	-0.0176
877.724	-0.0079
878.014	0.0152
878.305	-0.0131
878.595	-0.0104
878.885	-0.0365
879.175	0.0116
879.465	0.0081
879.755	-0.004
880.045	-0.0316
880.335	-0.0465
880.624	-0.0166
880.914	-0.0166
