Data from 53SS01LU-alt2_071717_1a_Absorbance_20-37-27-338.txt Node
Date: Tue Jul 18 20:37:27 MDT 2017
User: Tank Lab
Spectrometer: FLMS01220
Trigger mode: 0
Integration Time (sec): 1.000000E-1
Scans to average: 10
Electric dark correction enabled: true
Nonlinearity correction enabled: false
Boxcar width: 1
XAxis mode: Wavelengths
Number of Pixels in Spectrum: 2048
>>>>>Begin Spectral Data<<<<<
179.47	0.2204
179.856	0.2204
180.241	0.359
180.626	1.8377
181.011	-0
181.396	-0
181.781	1.4428
182.166	-0
182.551	1.6129
182.936	0.4797
183.321	-0
183.706	0.1347
184.091	-0.0144
184.476	-0
184.86	-0
185.245	0.2024
185.63	-0
186.015	0.3228
186.399	-0
186.784	0.3449
187.169	0.2657
187.553	0.0493
187.938	0.041
188.322	0.1225
188.707	0.1011
189.091	0.0696
189.475	0.0438
189.86	0.0739
190.244	0.1224
190.629	0.1494
191.013	0.16
191.397	0.2013
191.781	0.2734
192.165	0.3118
192.55	0.3666
192.934	0.4021
193.318	0.4511
193.702	0.4872
194.086	0.5147
194.47	0.5319
194.854	0.5384
195.238	0.5542
195.622	0.564
196.006	0.5455
196.389	0.5058
196.773	0.474
197.157	0.4499
197.541	0.4432
197.924	0.427
198.308	0.4004
198.692	0.3759
199.075	0.3522
199.459	0.3301
199.843	0.3062
200.226	0.2903
200.61	0.2787
200.993	0.2618
201.376	0.2473
201.76	0.2274
202.143	0.217
202.527	0.205
202.91	0.1969
203.293	0.1861
203.676	0.1764
204.059	0.1681
204.443	0.1642
204.826	0.1569
205.209	0.1473
205.592	0.1388
205.975	0.1322
206.358	0.1299
206.741	0.1281
207.124	0.1255
207.507	0.1263
207.89	0.1256
208.273	0.1253
208.655	0.1195
209.038	0.1161
209.421	0.1136
209.804	0.1164
210.186	0.1114
210.569	0.1124
210.951	0.1081
211.334	0.1079
211.717	0.104
212.099	0.1023
212.482	0.1012
212.864	0.1
213.246	0.0992
213.629	0.1013
214.011	0.1014
214.393	0.1023
214.776	0.0992
215.158	0.0997
215.54	0.0964
215.922	0.0968
216.305	0.0935
216.687	0.0941
217.069	0.092
217.451	0.0921
217.833	0.0921
218.215	0.0922
218.597	0.0914
218.979	0.0912
219.361	0.0902
219.742	0.0878
220.124	0.0876
220.506	0.0871
220.888	0.0869
221.27	0.0843
221.651	0.0832
222.033	0.0849
222.415	0.085
222.796	0.0843
223.178	0.0831
223.559	0.0804
223.941	0.078
224.322	0.0765
224.704	0.0774
225.085	0.0783
225.466	0.0769
225.848	0.0763
226.229	0.0769
226.61	0.0767
226.992	0.0777
227.373	0.074
227.754	0.0736
228.135	0.0706
228.516	0.0718
228.897	0.0719
229.278	0.0727
229.659	0.0724
230.04	0.0703
230.421	0.0681
230.802	0.0673
231.183	0.0686
231.564	0.0688
231.944	0.0673
232.325	0.0651
232.706	0.065
233.087	0.0654
233.467	0.0663
233.848	0.0652
234.229	0.0652
234.609	0.0645
234.99	0.0649
235.37	0.0644
235.751	0.0657
236.131	0.0639
236.511	0.0631
236.892	0.06
237.272	0.0597
237.652	0.0591
238.033	0.0592
238.413	0.0591
238.793	0.0582
239.173	0.0591
239.553	0.0591
239.933	0.0602
240.313	0.0601
240.694	0.0582
241.074	0.0569
241.453	0.0563
241.833	0.0568
242.213	0.0572
242.593	0.0561
242.973	0.0558
243.353	0.0558
243.732	0.055
244.112	0.0557
244.492	0.0538
244.872	0.0558
245.251	0.0552
245.631	0.0563
246.01	0.0544
246.39	0.0521
246.769	0.0521
247.149	0.0512
247.528	0.0522
247.908	0.0508
248.287	0.052
248.666	0.0518
249.045	0.0512
249.425	0.0506
249.804	0.0508
250.183	0.0513
250.562	0.0507
250.941	0.0511
251.32	0.0514
251.699	0.0519
252.078	0.0507
252.457	0.0501
252.836	0.0492
253.215	0.0494
253.594	0.0498
253.973	0.0495
254.352	0.0493
254.731	0.0502
255.109	0.0499
255.488	0.0499
255.867	0.0486
256.245	0.0489
256.624	0.0477
257.002	0.0469
257.381	0.0453
257.759	0.0465
258.138	0.0467
258.516	0.0485
258.895	0.0477
259.273	0.0485
259.651	0.0469
260.03	0.0483
260.408	0.0472
260.786	0.0469
261.164	0.0462
261.542	0.0461
261.921	0.0466
262.299	0.045
262.677	0.045
263.055	0.0453
263.433	0.0458
263.811	0.0463
264.188	0.0439
264.566	0.0433
264.944	0.0429
265.322	0.0441
265.7	0.0448
266.077	0.0441
266.455	0.043
266.833	0.043
267.21	0.0425
267.588	0.0435
267.966	0.0414
268.343	0.041
268.721	0.0419
269.098	0.0425
269.475	0.0422
269.853	0.0416
270.23	0.0411
270.607	0.0413
270.985	0.0403
271.362	0.04
271.739	0.0388
272.116	0.0385
272.494	0.0381
272.871	0.0387
273.248	0.038
273.625	0.0378
274.002	0.037
274.379	0.0372
274.756	0.0371
275.132	0.0358
275.509	0.035
275.886	0.0346
276.263	0.037
276.64	0.0366
277.016	0.0366
277.393	0.0348
277.77	0.0343
278.146	0.0341
278.523	0.0342
278.899	0.0358
279.276	0.035
279.652	0.0356
280.029	0.0341
280.405	0.0354
280.782	0.0342
281.158	0.035
281.534	0.034
281.91	0.034
282.287	0.0328
282.663	0.0335
283.039	0.0357
283.415	0.0345
283.791	0.0342
284.167	0.0319
284.543	0.034
284.919	0.0332
285.295	0.0329
285.671	0.0308
286.047	0.0306
286.423	0.0298
286.799	0.0306
287.174	0.0305
287.55	0.0298
287.926	0.0304
288.301	0.0296
288.677	0.031
289.053	0.0304
289.428	0.031
289.804	0.0293
290.179	0.0287
290.555	0.0278
290.93	0.0282
291.305	0.0274
291.681	0.0284
292.056	0.0298
292.431	0.0301
292.806	0.0312
293.182	0.0295
293.557	0.0311
293.932	0.0298
294.307	0.0295
294.682	0.0267
295.057	0.0264
295.432	0.0264
295.807	0.0277
296.182	0.0271
296.557	0.0261
296.932	0.026
297.306	0.0252
297.681	0.0252
298.056	0.0262
298.43	0.0267
298.805	0.0264
299.18	0.0243
299.554	0.0233
299.929	0.0246
300.303	0.0247
300.678	0.0263
301.052	0.0253
301.427	0.0258
301.801	0.0256
302.175	0.026
302.55	0.0251
302.924	0.0249
303.298	0.0247
303.672	0.0251
304.046	0.024
304.421	0.0228
304.795	0.0232
305.169	0.0234
305.543	0.0238
305.917	0.0225
306.291	0.0232
306.664	0.0234
307.038	0.0241
307.412	0.0227
307.786	0.0234
308.16	0.0232
308.533	0.0235
308.907	0.0228
309.281	0.0232
309.654	0.0238
310.028	0.023
310.401	0.0222
310.775	0.0224
311.148	0.0228
311.522	0.0227
311.895	0.0218
312.268	0.0197
312.642	0.0198
313.015	0.0196
313.388	0.0204
313.761	0.0204
314.135	0.0182
314.508	0.0187
314.881	0.0175
315.254	0.0203
315.627	0.0207
316	0.0213
316.373	0.0209
316.746	0.0199
317.118	0.0203
317.491	0.0198
317.864	0.0202
318.237	0.0186
318.61	0.0185
318.982	0.0175
319.355	0.0195
319.727	0.0184
320.1	0.0203
320.473	0.0213
320.845	0.0212
321.218	0.0213
321.59	0.0198
321.962	0.0203
322.335	0.0186
322.707	0.017
323.079	0.0178
323.452	0.0187
323.824	0.0201
324.196	0.0197
324.568	0.0196
324.94	0.0182
325.312	0.019
325.684	0.0187
326.056	0.0188
326.428	0.0181
326.8	0.0169
327.172	0.0184
327.544	0.0166
327.915	0.0173
328.287	0.0143
328.659	0.0151
329.031	0.0154
329.402	0.0166
329.774	0.0161
330.145	0.0146
330.517	0.0137
330.888	0.0139
331.26	0.0138
331.631	0.015
332.003	0.0157
332.374	0.0155
332.745	0.0144
333.117	0.0134
333.488	0.0158
333.859	0.0159
334.23	0.0152
334.601	0.0132
334.972	0.0129
335.343	0.0139
335.714	0.014
336.085	0.0132
336.456	0.0125
336.827	0.0115
337.198	0.0125
337.569	0.0135
337.94	0.016
338.31	0.0149
338.681	0.0144
339.052	0.0116
339.422	0.0116
339.793	0.0133
340.164	0.0146
340.534	0.0142
340.905	0.013
341.275	0.0127
341.645	0.016
342.016	0.0148
342.386	0.0149
342.756	0.012
343.127	0.012
343.497	0.011
343.867	0.011
344.237	0.0108
344.607	0.0108
344.977	0.0119
345.347	0.0125
345.717	0.0109
346.087	0.0095
346.457	0.0096
346.827	0.0106
347.197	0.011
347.567	0.0091
347.936	0.0098
348.306	0.0102
348.676	0.0117
349.046	0.011
349.415	0.011
349.785	0.0103
350.154	0.011
350.524	0.0117
350.893	0.0115
351.263	0.0107
351.632	0.0084
352.001	0.0089
352.371	0.0098
352.74	0.0111
353.109	0.0097
353.478	0.01
353.847	0.0094
354.217	0.0105
354.586	0.011
354.955	0.013
355.324	0.0135
355.693	0.0119
356.062	0.01
356.43	0.0075
356.799	0.0086
357.168	0.0092
357.537	0.01
357.906	0.0084
358.274	0.008
358.643	0.0075
359.011	0.0077
359.38	0.0069
359.749	0.0065
360.117	0.0065
360.486	0.0066
360.854	0.0076
361.222	0.0051
361.591	0.0047
361.959	0.0041
362.327	0.0069
362.695	0.0045
363.064	0.0035
363.432	0.0019
363.8	0.0045
364.168	0.0055
364.536	0.0055
364.904	0.0053
365.272	0.006
365.64	0.0078
366.008	0.0083
366.376	0.0074
366.743	0.0078
367.111	0.0078
367.479	0.0086
367.847	0.0061
368.214	0.0057
368.582	0.0062
368.949	0.0081
369.317	0.0097
369.684	0.01
370.052	0.0103
370.419	0.0092
370.787	0.0082
371.154	0.0068
371.521	0.006
371.889	0.0064
372.256	0.0066
372.623	0.0051
372.99	0.0032
373.357	0.0034
373.724	0.0057
374.091	0.0071
374.458	0.006
374.825	0.0043
375.192	0.0035
375.559	0.0039
375.926	0.0051
376.293	0.0066
376.659	0.0052
377.026	0.0041
377.393	0.0034
377.759	0.0035
378.126	0.0062
378.492	0.0075
378.859	0.0077
379.225	0.0062
379.592	0.0055
379.958	0.005
380.325	0.0051
380.691	0.0028
381.057	0.0063
381.423	0.0038
381.79	0.0068
382.156	0.0048
382.522	0.0056
382.888	0.0032
383.254	0.0043
383.62	0.0068
383.986	0.0073
384.352	0.0053
384.718	0.0039
385.084	0.0063
385.449	0.0062
385.815	0.0051
386.181	0.0048
386.547	0.0049
386.912	0.0048
387.278	0.0008
387.643	0.0021
388.009	0.0019
388.374	0.0033
388.74	0.0032
389.105	0.0059
389.471	0.0053
389.836	0.0041
390.201	0.0027
390.566	0.0042
390.932	0.0063
391.297	0.0067
391.662	0.0054
392.027	0.0028
392.392	0.0008
392.757	0.0009
393.122	0.0016
393.487	0.0022
393.852	0.0028
394.217	0.0031
394.582	0.0046
394.946	0.0058
395.311	0.0066
395.676	0.0093
396.04	0.0051
396.405	0.0043
396.77	0.0011
397.134	0.0044
397.499	0.0032
397.863	0.0029
398.227	0.0008
398.592	0.0013
398.956	0.0024
399.32	0.0044
399.685	0.0049
400.049	0.0048
400.413	0.006
400.777	0.0052
401.141	0.0095
401.505	0.0084
401.869	0.006
402.233	-0.0006
402.597	-0.0014
402.961	0.0001
403.325	0.0036
403.689	0.0041
404.053	0.0038
404.416	-0.0005
404.78	-0.0004
405.144	0.0019
405.507	0.0041
405.871	0.0018
406.234	0.0012
406.598	0.0028
406.961	0.0024
407.325	0.0022
407.688	-0.0015
408.051	0.0025
408.415	0.0016
408.778	0.0024
409.141	-0.0009
409.504	0.0015
409.867	0.0019
410.23	-0
410.593	-0.0017
410.956	0.0003
411.319	0.0069
411.682	0.0075
412.045	0.0066
412.408	0.0026
412.771	0.0021
413.134	0.0027
413.496	0.0044
413.859	0.0047
414.222	0.0023
414.584	0.0007
414.947	0.0017
415.309	0.0035
415.672	0.0036
416.034	0.0024
416.396	0.0037
416.759	0.0042
417.121	0.0023
417.483	-0.0002
417.846	0.0014
418.208	0.0028
418.57	0.0036
418.932	0.0017
419.294	0.0022
419.656	0.0007
420.018	0.0015
420.38	0.0014
420.742	0.0025
421.104	0.0026
421.466	0.0006
421.827	0.0001
422.189	-0.0014
422.551	-0.0004
422.912	0.0011
423.274	0.0038
423.636	0.0058
423.997	0.0076
424.359	0.0069
424.72	0.0065
425.081	0.0025
425.443	-0.0012
425.804	-0.0041
426.165	-0.0026
426.527	-0.002
426.888	0.0006
427.249	0.0011
427.61	0.0047
427.971	0.0017
428.332	0.001
428.693	-0.0029
429.054	-0.0008
429.415	-0.0008
429.776	0.001
430.137	0.0019
430.498	0.0028
430.858	0.0042
431.219	0.0061
431.58	0.0045
431.94	0.0042
432.301	0.0052
432.661	0.0036
433.022	0.0038
433.382	0.0017
433.743	0.0008
434.103	-0.0008
434.463	-0.0052
434.824	-0.0036
435.184	-0.0015
435.544	0.0025
435.904	0.0028
436.264	0.0007
436.624	0.0001
436.985	0.0016
437.345	0.0024
437.704	0.0028
438.064	0.0023
438.424	0.0005
438.784	0.0007
439.144	0.0055
439.504	0.0032
439.863	-0.0001
440.223	-0.0068
440.583	-0.0044
440.942	0.0007
441.302	0.0011
441.661	-0.0005
442.021	-0.0046
442.38	-0.0038
442.739	-0.0013
443.099	0
443.458	0.0001
443.817	0.0012
444.176	0.0017
444.536	-0.0002
444.895	-0.0002
445.254	0.0005
445.613	0.0023
445.972	0.0022
446.331	0.0005
446.69	-0.0008
447.049	-0.0013
447.407	-0.0017
447.766	0.001
448.125	0.0014
448.484	0.0017
448.842	0.0042
449.201	0.0031
449.559	0.0039
449.918	-0.0003
450.276	0.0018
450.635	0.0022
450.993	0.0011
451.352	-0.0002
451.71	-0.0011
452.068	0.0001
452.426	0.0002
452.785	-0.0013
453.143	-0.0012
453.501	0.0001
453.859	0.0015
454.217	0.002
454.575	-0.0016
454.933	-0.0005
455.291	-0.0001
455.649	-0.0002
456.006	-0.0018
456.364	0.0016
456.722	-0.0003
457.079	0.0015
457.437	-0.0003
457.795	0.0052
458.152	0.0053
458.51	0.0023
458.867	-0.0003
459.225	-0.0003
459.582	0.004
459.939	0.002
460.297	-0.0005
460.654	-0.0026
461.011	0.0016
461.368	0.0046
461.725	0.0049
462.082	0.0034
462.44	0.0034
462.797	0.0025
463.153	0.0039
463.51	0.0018
463.867	0.0039
464.224	-0.0009
464.581	-0.0045
464.938	-0.0071
465.294	-0.004
465.651	-0.0013
466.008	-0.0006
466.364	0.0011
466.721	0.0016
467.077	0.0016
467.434	0.0016
467.79	0.0027
468.146	0.0026
468.503	0.0075
468.859	0.0029
469.215	-0.0005
469.571	-0.0067
469.927	-0.0035
470.284	-0.0026
470.64	0.0023
470.996	0.0053
471.352	0.01
471.707	0.0058
472.063	0.0038
472.419	0.0013
472.775	-0.0015
473.131	-0.0003
473.486	0
473.842	0.0021
474.198	0.0001
474.553	0.0002
474.909	0.0027
475.264	0.0043
475.62	0.0055
475.975	0.0046
476.331	0.0051
476.686	0.0039
477.041	0.0027
477.396	0.004
477.752	0.0072
478.107	0.0066
478.462	0.0037
478.817	0.0014
479.172	0.0049
479.527	0.0059
479.882	0.0038
480.237	0.0001
480.591	-0.0006
480.946	-0.0031
481.301	-0.0029
481.656	-0.0055
482.01	-0.0024
482.365	-0.0051
482.72	-0.0008
483.074	0.0015
483.429	0.0035
483.783	0.0007
484.137	0.0032
484.492	0.0041
484.846	0.006
485.2	-0.0008
485.555	-0.0011
485.909	-0.0002
486.263	0.004
486.617	0.0023
486.971	0.001
487.325	0.0006
487.679	0.0046
488.033	-0.0009
488.387	0.0068
488.741	0.0083
489.094	0.0036
489.448	-0.0047
489.802	-0.0036
490.156	0.0046
490.509	-0.0006
490.863	-0.0076
491.216	-0.0031
491.57	0.0003
491.923	0.0028
492.277	-0.0005
492.63	-0
492.983	-0.0008
493.337	-0.0041
493.69	-0.0017
494.043	-0.0009
494.396	0.0002
494.749	-0.0016
495.102	-0.0046
495.455	-0.0042
495.808	-0.0058
496.161	-0.002
496.514	-0.0013
496.867	-0.0002
497.22	-0.0013
497.572	-0.0042
497.925	-0.0029
498.278	-0.0037
498.63	0.006
498.983	0.0078
499.335	0.0086
499.688	-0.0029
500.04	-0.0074
500.393	-0.0088
500.745	-0.0041
501.097	0.0002
501.449	-0.0008
501.802	-0.0006
502.154	-0.0003
502.506	-0.0023
502.858	-0.0016
503.21	-0.0046
503.562	-0.0004
503.914	0.0042
504.266	0.0065
504.618	0.0025
504.969	-0.0011
505.321	-0.0068
505.673	-0.0038
506.025	-0.0046
506.376	0.0003
506.728	-0.0023
507.079	-0.0016
507.431	-0.003
507.782	-0.0001
508.134	0.0003
508.485	-0.002
508.836	-0.0044
509.188	-0.0035
509.539	-0.0008
509.89	-0.0049
510.241	-0.0077
510.592	-0.0036
510.943	-0.0016
511.294	-0.0013
511.645	-0.0077
511.996	-0.0057
512.347	-0.0042
512.698	-0.0002
513.049	-0.0003
513.399	-0.0018
513.75	-0.0045
514.101	-0.0011
514.451	-0.0012
514.802	0.001
515.152	-0.0015
515.503	0.0011
515.853	-0.0007
516.203	-0.0031
516.554	-0.0066
516.904	-0.0062
517.254	-0.0037
517.604	-0.0026
517.955	-0.0044
518.305	-0.0017
518.655	-0.0009
519.005	0.0024
519.355	0.005
519.705	0.0032
520.055	0.0002
520.404	-0.0031
520.754	-0.0006
521.104	0.0035
521.454	0.005
521.803	0.0051
522.153	0.0008
522.502	-0.0035
522.852	-0.0079
523.201	-0.0038
523.551	-0.0031
523.9	0.0006
524.249	0.0009
524.599	0.0007
524.948	0.0007
525.297	0.0008
525.646	0.0001
525.995	-0.0015
526.344	-0.0046
526.694	-0.0002
527.042	0.0003
527.391	-0.001
527.74	-0.0041
528.089	-0.0037
528.438	-0
528.787	-0.0005
529.135	-0.0005
529.484	-0.0009
529.833	0.0016
530.181	-0.001
530.53	-0.0028
530.878	-0.0065
531.227	-0.0019
531.575	0.003
531.923	-0.0004
532.271	-0.0023
532.62	-0.0045
532.968	-0.0006
533.316	-0.002
533.664	-0.0024
534.012	-0.0007
534.36	0.0036
534.708	-0.0008
535.056	-0.0047
535.404	-0.0089
535.752	-0.0047
536.1	-0.0021
536.447	-0.002
536.795	-0.0011
537.143	-0.0003
537.49	-0.0033
537.838	-0.0069
538.185	-0.0092
538.533	-0.0057
538.88	-0.0043
539.228	-0.0054
539.575	-0.0043
539.922	-0.0052
540.269	0.0044
540.617	0.0025
540.964	0.0003
541.311	-0.0041
541.658	-0.0001
542.005	0.002
542.352	-0.0003
542.699	-0.0064
543.045	-0.0097
543.392	-0.0071
543.739	-0.0034
544.086	-0.0008
544.432	-0.005
544.779	-0.0026
545.126	-0.0052
545.472	-0.0044
545.819	-0.0093
546.165	-0.0062
546.512	-0.0029
546.858	0.0043
547.204	0.0061
547.55	0.0058
547.897	0.0023
548.243	-0.0022
548.589	0
548.935	-0.0018
549.281	0.0017
549.627	-0.0028
549.973	-0.0001
550.319	-0.0023
550.665	0
551.01	-0.0035
551.356	-0.0097
551.702	-0.013
552.048	-0.0199
552.393	-0.0115
552.739	-0.0085
553.084	-0.0002
553.43	-0.0048
553.775	-0.0083
554.12	-0.01
554.466	-0.0027
554.811	0.0008
555.156	0.0024
555.502	0.0004
555.847	-0.0018
556.192	-0.0009
556.537	-0.0033
556.882	-0.0036
557.227	-0.0113
557.572	-0.0075
557.917	0.0045
558.261	0.0044
558.606	-0.001
558.951	-0.0115
559.295	-0.0123
559.64	-0.0067
559.985	-0.0074
560.329	-0.001
560.674	-0.0036
561.018	-0.009
561.363	-0.0114
561.707	-0.0125
562.051	-0.0065
562.395	0.001
562.74	0.0031
563.084	0.0045
563.428	0.002
563.772	0.003
564.116	-0.0003
564.46	-0.0026
564.804	0.0005
565.148	-0.0064
565.492	-0.0032
565.835	-0.0039
566.179	0.0072
566.523	-0.0016
566.866	-0.0085
567.21	-0.0108
567.554	-0.0045
567.897	-0.002
568.24	-0.0077
568.584	-0.0098
568.927	-0.0083
569.271	-0.0045
569.614	-0.0031
569.957	-0.0025
570.3	0.0011
570.643	0.0007
570.986	-0.0028
571.329	-0.0003
571.672	0.0036
572.015	0.0028
572.358	0.0013
572.701	0.005
573.044	0.0006
573.387	-0.0026
573.729	-0.0007
574.072	0.0051
574.414	0.0085
574.757	0.008
575.099	-0.0083
575.442	-0.0173
575.784	-0.0054
576.127	0.0085
576.469	0.0097
576.811	-0.0038
577.153	-0.0004
577.496	0.0001
577.838	0.002
578.18	-0.0148
578.522	-0.0169
578.864	-0.0205
579.206	0.0047
579.548	0.0066
579.889	-0.0064
580.231	0.0056
580.573	0.0201
580.915	0.0158
581.256	-0.01
581.598	-0.0313
581.939	-0.0345
582.281	-0.0035
582.622	-0.0055
582.964	0.0019
583.305	-0.0138
583.646	0.0004
583.988	0.0418
584.329	0.0275
584.67	0.0082
585.011	-0.025
585.352	-0.038
585.693	-0.0221
586.034	-0.0288
586.375	-0.0227
586.716	-0.0181
587.057	-0.0069
587.398	0.0122
587.738	0.0235
588.079	0.0087
588.42	0.0011
588.76	-0.0237
589.101	-0.0188
589.441	-0.0224
589.782	-0.0071
590.122	0.0049
590.463	0.0069
590.803	-0.0056
591.143	-0.0042
591.483	-0.0129
591.823	-0.0158
592.164	-0.0217
592.504	-0.0062
592.844	-0.0009
593.184	-0.0067
593.523	-0.0173
593.863	-0.0141
594.203	-0.0035
594.543	0.0082
594.883	-0.0016
595.222	0.0013
595.562	0.0199
595.901	0.0213
596.241	0.0078
596.58	-0.0154
596.92	-0.0255
597.259	-0.0293
597.599	-0.0161
597.938	0.0083
598.277	0.0098
598.616	-0.0109
598.955	-0.0203
599.295	-0.0167
599.634	0.0032
599.973	0.0098
600.312	0.0159
600.65	-0.0007
600.989	-0.0039
601.328	0.0007
601.667	0.0271
602.005	0.0076
602.344	-0.004
602.683	-0.0082
603.021	0.0019
603.36	-0.0081
603.698	-0.0202
604.037	-0.0226
604.375	-0.0164
604.713	-0.0199
605.052	-0.016
605.39	-0.0105
605.728	-0.0072
606.066	0.0149
606.404	0.016
606.742	0.0094
607.08	-0.001
607.418	-0.012
607.756	-0.0017
608.094	0.0015
608.431	0.0063
608.769	0.0123
609.107	-0.0078
609.444	0.0019
609.782	-0.0109
610.12	0.0055
610.457	-0.0024
610.794	-0.0173
611.132	-0.0198
611.469	-0.0223
611.806	-0.0158
612.144	-0.0245
612.481	-0.0127
612.818	0.0053
613.155	-0.0028
613.492	-0.0118
613.829	-0.0174
614.166	-0.0013
614.503	0
614.84	-0.0043
615.176	-0.0062
615.513	-0.0013
615.85	0.0003
616.187	0.004
616.523	-0.0061
616.86	-0.0096
617.196	0.0003
617.533	0.0228
617.869	0.0139
618.205	-0.0026
618.542	-0.0239
618.878	-0.0293
619.214	-0.016
619.55	-0.0102
619.886	-0.004
620.222	-0.019
620.558	-0.0109
620.894	0.0034
621.23	0.0041
621.566	-0.0049
621.902	-0.012
622.238	-0.0186
622.573	0.0025
622.909	-0.0041
623.244	0.0016
623.58	-0.0235
623.916	-0.0255
624.251	-0.0076
624.586	0.0169
624.922	0.0192
625.257	-0.0046
625.592	-0.018
625.927	-0.0133
626.263	-0.0093
626.598	-0.005
626.933	0.0004
627.268	0.0092
627.603	-0.0049
627.938	-0.0188
628.272	-0.0172
628.607	-0.0155
628.942	-0.0123
629.277	-0.0169
629.611	-0.0039
629.946	0.0092
630.281	-0.0009
630.615	-0.0044
630.949	-0.0202
631.284	-0.0162
631.618	-0.01
631.953	-0.0008
632.287	0.0047
632.621	-0.0048
632.955	-0.0084
633.289	-0.0093
633.623	-0.0085
633.957	-0.006
634.291	-0.0082
634.625	-0.0025
634.959	-0.0101
635.293	-0.0052
635.627	-0.0024
635.96	0.0043
636.294	0.0009
636.627	-0.0029
636.961	0.0006
637.294	-0.0002
637.628	-0.0064
637.961	-0.0109
638.295	-0.0079
638.628	0.0007
638.961	0.0049
639.294	0.006
639.628	-0.0048
639.961	-0.0132
640.294	-0.0154
640.627	-0.0055
640.96	0.0004
641.293	0.0041
641.625	-0.0006
641.958	-0.0034
642.291	-0.0107
642.624	-0.0097
642.956	-0.0082
643.289	-0.0021
643.621	-0.0048
643.954	-0.0052
644.286	-0.008
644.619	-0.0055
644.951	-0.0054
645.283	-0.004
645.616	-0.0007
645.948	0.0045
646.28	0.0076
646.612	0.0062
646.944	0.0026
647.276	-0.0061
647.608	-0.0051
647.94	-0.0076
648.272	-0.0044
648.603	-0.0075
648.935	-0.0065
649.267	-0.0044
649.598	-0.0058
649.93	-0.0063
650.261	-0.0043
650.593	0.0001
650.924	0.0139
651.256	0.0137
651.587	0.0105
651.918	0.0014
652.25	-0.0032
652.581	-0.0021
652.912	-0.0063
653.243	-0.0055
653.574	-0.0075
653.905	-0.0048
654.236	-0.008
654.567	-0.0046
654.897	-0.0017
655.228	-0.0029
655.559	0.001
655.89	0.0016
656.22	0.0018
656.551	-0.0077
656.881	-0.0143
657.212	-0.0097
657.542	-0.0025
657.872	0.0072
658.203	0.0182
658.533	0.1463
658.863	0.0865
659.193	0.017
659.523	-0.049
659.853	-0.1207
660.183	-0.0681
660.513	-0.0285
660.843	-0.0109
661.173	-0.0043
661.503	-0.0093
661.833	-0.0098
662.162	-0.0126
662.492	-0.0109
662.822	-0.0124
663.151	-0.0157
663.481	-0.0107
663.81	-0.0022
664.139	0.0059
664.469	0.0013
664.798	-0.0026
665.127	-0.0031
665.456	-0.0039
665.785	-0.0036
666.114	-0.004
666.443	-0.0033
666.772	-0.0014
667.101	-0.0001
667.43	0.0063
667.759	0.0053
668.088	0.0084
668.416	-0.0016
668.745	-0.0024
669.074	-0.0114
669.402	-0.0068
669.731	-0.0073
670.059	0.0013
670.388	-0.0031
670.716	-0.0007
671.044	-0.0032
671.372	0.0014
671.701	0.0016
672.029	0.0033
672.357	0.0032
672.685	0.0002
673.013	0.0018
673.341	-0.0074
673.669	-0.0073
673.996	-0.0106
674.324	0.0151
674.652	0.0129
674.98	0.0084
675.307	-0.0048
675.635	-0.0098
675.962	-0.0078
676.29	-0.0133
676.617	-0.0097
676.945	-0.0074
677.272	-0.0069
677.599	-0.0035
677.926	-0.0033
678.253	-0.0008
678.581	-0.0069
678.908	-0.0047
679.235	0.0025
679.561	-0.0006
679.888	-0.009
680.215	-0.0156
680.542	0.006
680.869	0.0082
681.195	0.0024
681.522	-0.0095
681.849	-0.0086
682.175	0.0036
682.502	0.0076
682.828	0.0045
683.154	-0.0069
683.481	-0.013
683.807	-0.0121
684.133	0.0038
684.459	0.0042
684.785	0.007
685.111	-0.0079
685.437	-0.0097
685.763	-0.0154
686.089	-0.0089
686.415	-0.0018
686.741	-0.0011
687.067	0.0015
687.392	-0.0018
687.718	0.0028
688.043	0.0054
688.369	0.0048
688.694	-0.0032
689.02	-0.0116
689.345	-0.0156
689.67	-0.0128
689.996	-0.0063
690.321	-0.0012
690.646	0.0012
690.971	-0.0015
691.296	-0.0038
691.621	-0.0058
691.946	-0.0053
692.271	-0.0013
692.596	0.0007
692.921	-0.0004
693.245	-0.0108
693.57	-0.0028
693.895	0.0059
694.219	0.0132
694.544	-0.0025
694.868	-0.0143
695.193	-0.0154
695.517	-0.0029
695.841	0.0005
696.166	0.001
696.49	-0.005
696.814	-0.0073
697.138	-0.0095
697.462	-0.0036
697.786	0.003
698.11	0.0137
698.434	0.0045
698.758	-0.0072
699.081	-0.0216
699.405	-0.0088
699.729	0.0231
700.052	0.023
700.376	0.0073
700.7	-0.0166
701.023	-0.0239
701.346	-0.0154
701.67	-0.0118
701.993	-0.0061
702.316	-0.0084
702.639	-0.0041
702.963	-0.006
703.286	-0.0078
703.609	-0.0074
703.932	-0.0082
704.255	-0.0089
704.578	-0.0057
704.9	0.0036
705.223	0.0085
705.546	0.0031
705.868	-0.007
706.191	-0.0115
706.514	-0.0162
706.836	-0.0135
707.159	-0.0056
707.481	-0.0016
707.803	-0.003
708.126	-0.0068
708.448	-0.0075
708.77	-0.0022
709.092	-0.0046
709.414	0.0074
709.736	0.0074
710.058	0.0085
710.38	-0.003
710.702	-0.0047
711.024	-0.0096
711.345	-0.0109
711.667	-0.0144
711.989	-0.0143
712.31	-0.0112
712.632	-0.0059
712.953	-0.0022
713.275	0.0029
713.596	0.0022
713.917	-0.0034
714.239	-0.0094
714.56	-0.0093
714.881	-0.0001
715.202	0.0045
715.523	0.0145
715.844	0.0069
716.165	0.0073
716.486	-0.0069
716.807	-0.0029
717.128	-0.0068
717.448	-0.0063
717.769	-0.0096
718.09	-0.0055
718.41	-0.0072
718.731	-0.0086
719.051	-0.0145
719.372	-0.0118
719.692	-0.0049
720.012	0.0006
720.332	-0.0022
720.653	-0
720.973	0.0091
721.293	0.0023
721.613	-0.0051
721.933	-0.0151
722.253	-0.0038
722.573	-0.0064
722.892	-0.0083
723.212	-0.0124
723.532	-0.0063
723.851	-0.0015
724.171	-0.002
724.491	0.0034
724.81	0.0032
725.129	0.0028
725.449	-0.0038
725.768	-0.0044
726.087	0.0013
726.407	0.0026
726.726	0.0001
727.045	-0.0054
727.364	-0.0027
727.683	-0.0028
728.002	0.0039
728.321	-0.0001
728.64	-0.0025
728.958	-0.0026
729.277	-0.0035
729.596	-0.0082
729.914	-0.0098
730.233	-0.0081
730.551	0.0025
730.87	0.0008
731.188	-0.0002
731.507	-0.0061
731.825	-0.0104
732.143	-0.007
732.461	-0.0007
732.779	0.0013
733.097	-0.0031
733.415	0.0004
733.733	0.0114
734.051	0.0032
734.369	-0.0022
734.687	-0.0187
735.005	-0.0145
735.322	-0.013
735.64	0.0009
735.957	0.004
736.275	0.002
736.592	0.0043
736.91	0.0032
737.227	0.0049
737.544	-0.0125
737.862	-0.012
738.179	-0.0123
738.496	0.0035
738.813	-0.0011
739.13	-0.0145
739.447	-0.0208
739.764	-0.0096
740.081	0.0016
740.398	-0.0051
740.714	-0.0113
741.031	-0.0112
741.348	-0.0013
741.664	0.0049
741.981	0.0138
742.297	0.0036
742.614	-0.0093
742.93	-0.025
743.246	-0.0177
743.563	-0.0098
743.879	-0.0055
744.195	-0.0073
744.511	-0.0047
744.827	-0.0021
745.143	0.0043
745.459	0.0073
745.775	-0.0003
746.091	-0.0071
746.406	-0.0123
746.722	-0.0099
747.038	-0.0098
747.353	-0.0089
747.669	-0.0033
747.984	-0.0029
748.3	0.0015
748.615	0.0003
748.93	0.0003
749.246	-0.009
749.561	-0.0086
749.876	-0.0025
750.191	0.0043
750.506	0.0043
750.821	-0.0012
751.136	0.0016
751.451	0.004
751.766	0.0008
752.08	0.0015
752.395	0.0014
752.71	0.0027
753.024	-0.0016
753.339	-0.0033
753.653	-0.0026
753.968	0.0024
754.282	0.0048
754.596	0.004
754.911	-0.0031
755.225	-0.0001
755.539	-0.0016
755.853	-0.0027
756.167	-0.003
756.481	-0.0003
756.795	-0.0036
757.109	-0.0091
757.423	-0.008
757.736	-0.0033
758.05	-0.0025
758.364	-0.0016
758.677	-0.003
758.991	-0.0043
759.304	-0.0014
759.618	0.0042
759.931	0.0013
760.244	0.005
760.558	-0.0052
760.871	-0.0083
761.184	-0.0252
761.497	-0.0218
761.81	-0.0131
762.123	-0.0008
762.436	0.0026
762.749	-0.0044
763.062	-0.0019
763.374	0.0052
763.687	0.0013
764	-0.0051
764.312	-0.0221
764.625	-0.0214
764.937	-0.0225
765.25	-0.0113
765.562	0.0005
765.874	-0.0004
766.186	0.0008
766.499	-0.0088
766.811	-0.0083
767.123	0.0006
767.435	0.0061
767.747	0.0066
768.059	-0.0085
768.37	-0.0127
768.682	-0.0198
768.994	-0.0226
769.306	-0.0237
769.617	-0.016
769.929	-0.0116
770.24	-0.0074
770.552	-0.0018
770.863	0.0071
771.174	0.0065
771.486	0.0034
771.797	-0.0078
772.108	-0.0194
772.419	-0.0266
772.73	-0.0185
773.041	-0.0012
773.352	0.0063
773.663	-0.0022
773.974	-0.0059
774.285	-0.013
774.595	-0.0082
774.906	-0.0102
775.217	-0.0053
775.527	-0.0074
775.838	-0.0076
776.148	-0.0084
776.458	-0.007
776.769	-0.0058
777.079	-0.0066
777.389	-0.0005
777.699	0.0048
778.009	0.0072
778.319	0.0047
778.629	-0.0106
778.939	-0.0134
779.249	-0.0137
779.559	-0.0072
779.869	-0.0067
780.178	-0.0079
780.488	-0.0095
780.798	-0.0068
781.107	-0.0039
781.417	0.0033
781.726	0.0018
782.035	0.0039
782.345	-0.0018
782.654	-0.0002
782.963	-0.0052
783.272	0.0007
783.581	0.0062
783.89	0.0161
784.199	0.0066
784.508	-0.003
784.817	-0.0193
785.126	-0.0156
785.434	-0.0136
785.743	-0.0118
786.052	-0.0062
786.36	-0.0104
786.669	-0.0067
786.977	-0.0099
787.285	-0.0015
787.594	0.0062
787.902	0.006
788.21	0.0041
788.518	0.0033
788.826	0.0006
789.135	-0.003
789.442	-0.0097
789.75	-0.0087
790.058	-0.0062
790.366	-0.0056
790.674	-0.0034
790.981	-0.0006
791.289	0.0031
791.597	-0.0037
791.904	-0.0093
792.212	-0.0141
792.519	-0.0149
792.826	-0.0077
793.134	-0.0064
793.441	-0.0036
793.748	-0.0049
794.055	-0.0041
794.362	0.0003
794.669	-0.0119
794.976	-0.0115
795.283	-0.0171
795.59	-0.0029
795.897	-0.0093
796.203	-0.0072
796.51	0.0068
796.817	0.0197
797.123	0.0066
797.43	-0.0087
797.736	-0.0171
798.042	-0.0145
798.349	-0.017
798.655	-0.0256
798.961	-0.0159
799.267	-0.0091
799.573	-0.0036
799.879	0.0025
800.185	0.0042
800.491	0.0072
800.797	-0.0033
801.103	-0.0166
801.408	-0.0195
801.714	-0.01
802.02	-0.0079
802.325	-0.0049
802.631	-0.0113
802.936	-0.0031
803.242	-0.0062
803.547	-0.0061
803.852	-0.0058
804.157	-0.0069
804.462	-0.0023
804.768	-0.0046
805.073	0.0023
805.378	0.0021
805.682	0.0013
805.987	0.0039
806.292	-0.0004
806.597	-0.0019
806.902	-0.0028
807.206	-0.0071
807.511	-0.0048
807.815	-0.0096
808.12	-0.0009
808.424	0.0036
808.728	0.0126
809.033	0.0142
809.337	0.0053
809.641	-0.006
809.945	-0.008
810.249	0.0002
810.553	-0.0026
810.857	-0.004
811.161	-0.013
811.465	-0.0108
811.768	-0.0221
812.072	-0.0215
812.376	-0.0205
812.679	-0.0044
812.983	-0.0021
813.286	0.0003
813.59	-0.0068
813.893	-0
814.196	-0.0048
814.499	-0.0005
814.803	-0.0056
815.106	-0.005
815.409	-0.0105
815.712	-0.0164
816.015	-0.0102
816.318	0.0037
816.62	0.01
816.923	-0.0012
817.226	-0.0154
817.528	-0.0133
817.831	-0.0057
818.133	-0.0135
818.436	-0.0152
818.738	-0.0201
819.041	-0.01
819.343	-0.0138
819.645	-0.0095
819.947	-0.0034
820.249	-0.0019
820.551	0.0001
820.853	-0.009
821.155	-0.0085
821.457	-0.0135
821.759	-0.013
822.061	-0.0168
822.362	-0.0077
822.664	-0.006
822.966	0.0061
823.267	0.0008
823.569	0.0015
823.87	-0.0156
824.171	-0.0216
824.473	-0.0261
824.774	-0.023
825.075	-0.0128
825.376	-0.0043
825.677	0.0127
825.978	0.0085
826.279	0.0039
826.58	-0.0129
826.881	-0.0145
827.181	-0.0202
827.482	-0.017
827.783	-0.0152
828.083	-0.0088
828.384	-0.0044
828.684	-0.009
828.985	-0.0069
829.285	-0.003
829.585	0.0044
829.885	0.0067
830.185	0.0032
830.486	-0.0022
830.786	-0.0119
831.086	-0.0224
831.385	-0.0212
831.685	-0.0125
831.985	0.003
832.285	-0.0028
832.585	-0.0135
832.884	-0.0292
833.184	-0.0312
833.483	-0.0317
833.783	-0.029
834.082	-0.0121
834.381	-0.0054
834.681	0.0029
834.98	-0.0126
835.279	-0.0164
835.578	-0.0132
835.877	-0.0191
836.176	-0.0216
836.475	-0.0276
836.774	-0.0184
837.072	-0.0107
837.371	0.002
837.67	0.0017
837.968	0.0047
838.267	-0.0028
838.565	-0.0022
838.864	-0.0115
839.162	-0.0189
839.46	-0.0124
839.759	-0.0104
840.057	-0.0085
840.355	-0.0095
840.653	-0.0025
840.951	-0.0028
841.249	-0.0253
841.547	-0.0376
841.845	-0.0368
842.142	-0.0173
842.44	-0.0065
842.738	0.0032
843.035	0.0073
843.333	0.0055
843.63	-0.0115
843.928	-0.0088
844.225	-0.0173
844.522	-0.0189
844.82	-0.0297
845.117	-0.0122
845.414	-0.0002
845.711	0.0038
846.008	-0.0093
846.305	-0.0149
846.602	-0.0089
846.898	-0.004
847.195	-0.0098
847.492	-0.0224
847.788	-0.0169
848.085	-0.0025
848.382	0.0087
848.678	0.012
848.974	0.0033
849.271	-0.0014
849.567	-0.0214
849.863	-0.0228
850.159	-0.0196
850.455	-0.0014
850.751	0.0063
851.047	0.0022
851.343	0.0001
851.639	-0.0047
851.935	0.0067
852.23	0.0064
852.526	-0.0089
852.822	-0.0167
853.117	-0.0212
853.413	0.0008
853.708	-0.0026
854.003	-0.0021
854.299	-0.0171
854.594	-0.0105
854.889	-0.0111
855.184	-0.0061
855.479	-0
855.774	-0.0037
856.069	-0.0025
856.364	-0.0172
856.659	-0.0127
856.954	-0.01
857.248	-0.0171
857.543	-0.0208
857.837	-0.0214
858.132	0.0021
858.426	0.0015
858.721	0.0018
859.015	-0.0103
859.309	-0.0048
859.604	-0.0085
859.898	-0.0074
860.192	-0.0224
860.486	-0.0327
860.78	-0.0431
861.074	-0.0249
861.367	-0.0285
861.661	-0.0023
861.955	-0.0057
862.248	0.0121
862.542	-0.0183
862.836	-0.0108
863.129	-0.0038
863.422	-0.0012
863.716	-0.0113
864.009	-0.0215
864.302	-0.0178
864.595	-0.0154
864.889	-0.0116
865.182	-0.0135
865.475	-0.0129
865.767	-0.0186
866.06	0.0118
866.353	-0.002
866.646	0.0114
866.938	-0.0115
867.231	0.0038
867.524	0.0055
867.816	0.0118
868.109	0.0096
868.401	-0.0067
868.693	0.0029
868.985	0.0044
869.278	0.0068
869.57	-0.0017
869.862	-0.0191
870.154	-0.0352
870.446	-0.0114
870.738	0.0059
871.029	0.0307
871.321	0.0154
871.613	0.0322
871.904	0.0174
872.196	-0.0052
872.487	-0.0475
872.779	-0.0325
873.07	-0.011
873.362	0.0056
873.653	-0.0079
873.944	-0.015
874.235	-0.0261
874.526	-0.0068
874.817	-0.0258
875.108	-0.0227
875.399	-0.0283
875.69	-0.0086
875.981	-0.0036
876.271	-0.0165
876.562	-0.0244
876.853	-0.0312
877.143	-0.0228
877.434	0.008
877.724	0.0421
878.014	0.0225
878.305	0.0166
878.595	-0.0068
878.885	-0.0013
879.175	-0.0186
879.465	-0.0153
879.755	-0.0057
880.045	-0.0124
880.335	-0.0151
880.624	-0.0127
880.914	-0.0127
