Data from 5SS01MI_072217_1b_Absorbance_19-16-17-772.txt Node
Date: Fri Jul 28 19:16:17 MDT 2017
User: Tank Lab
Spectrometer: FLMS01220
Trigger mode: 0
Integration Time (sec): 1.000000E-1
Scans to average: 10
Electric dark correction enabled: true
Nonlinearity correction enabled: false
Boxcar width: 1
XAxis mode: Wavelengths
Number of Pixels in Spectrum: 2048
>>>>>Begin Spectral Data<<<<<
179.47	1.0583
179.856	1.0583
180.241	-0
180.626	-0
181.011	-0.1037
181.396	-0.1999
181.781	0.2978
182.166	-0.9825
182.551	0.0951
182.936	0.6888
183.321	-0
183.706	0.1353
184.091	0.0435
184.476	-0
184.86	-0.7044
185.245	-0.3721
185.63	-0
186.015	-0
186.399	-0
186.784	0.0387
187.169	0.2088
187.553	0.3055
187.938	-0
188.322	-0.1081
188.707	-0.0291
189.091	0.0459
189.475	0.0883
189.86	0.1256
190.244	0.164
190.629	0.159
191.013	0.2043
191.397	0.2245
191.781	0.2927
192.165	0.3013
192.55	0.3432
192.934	0.3639
193.318	0.3802
193.702	0.3843
194.086	0.3693
194.47	0.372
194.854	0.377
195.238	0.3967
195.622	0.4032
196.006	0.4013
196.389	0.3917
196.773	0.3876
197.157	0.3929
197.541	0.404
197.924	0.4104
198.308	0.4067
198.692	0.4076
199.075	0.4056
199.459	0.4015
199.843	0.3975
200.226	0.3955
200.61	0.3957
200.993	0.3912
201.376	0.3843
201.76	0.3756
202.143	0.3731
202.527	0.3718
202.91	0.3718
203.293	0.3687
203.676	0.3663
204.059	0.3662
204.443	0.364
204.826	0.3645
205.209	0.3661
205.592	0.3639
205.975	0.3614
206.358	0.3581
206.741	0.3593
207.124	0.3612
207.507	0.3583
207.89	0.3509
208.273	0.3477
208.655	0.3449
209.038	0.3457
209.421	0.3442
209.804	0.3446
210.186	0.3438
210.569	0.34
210.951	0.3353
211.334	0.3338
211.717	0.3322
212.099	0.3304
212.482	0.3325
212.864	0.3289
213.246	0.3308
213.629	0.3255
214.011	0.3248
214.393	0.3175
214.776	0.3143
215.158	0.3097
215.54	0.3095
215.922	0.3071
216.305	0.3045
216.687	0.3033
217.069	0.3005
217.451	0.2981
217.833	0.2936
218.215	0.2907
218.597	0.29
218.979	0.2844
219.361	0.2806
219.742	0.2749
220.124	0.2785
220.506	0.2756
220.888	0.2715
221.27	0.264
221.651	0.2624
222.033	0.2618
222.415	0.26
222.796	0.2566
223.178	0.2525
223.559	0.2474
223.941	0.2416
224.322	0.2385
224.704	0.2364
225.085	0.2362
225.466	0.2338
225.848	0.2329
226.229	0.2301
226.61	0.2319
226.992	0.231
227.373	0.2288
227.754	0.2239
228.135	0.2202
228.516	0.217
228.897	0.2139
229.278	0.2118
229.659	0.2112
230.04	0.2089
230.421	0.2054
230.802	0.2034
231.183	0.2038
231.564	0.203
231.944	0.2008
232.325	0.1972
232.706	0.195
233.087	0.1932
233.467	0.1922
233.848	0.192
234.229	0.1895
234.609	0.1892
234.99	0.1874
235.37	0.1885
235.751	0.185
236.131	0.1837
236.511	0.1845
236.892	0.185
237.272	0.183
237.652	0.1783
238.033	0.1773
238.413	0.1772
238.793	0.1776
239.173	0.1758
239.553	0.1758
239.933	0.1744
240.313	0.1758
240.694	0.1729
241.074	0.1715
241.453	0.1682
241.833	0.1679
242.213	0.1672
242.593	0.1661
242.973	0.1659
243.353	0.1646
243.732	0.1644
244.112	0.164
244.492	0.1643
244.872	0.1644
245.251	0.1627
245.631	0.1618
246.01	0.1609
246.39	0.1597
246.769	0.1598
247.149	0.1589
247.528	0.1597
247.908	0.1584
248.287	0.1582
248.666	0.1558
249.045	0.1558
249.425	0.1541
249.804	0.1547
250.183	0.1533
250.562	0.1529
250.941	0.1514
251.32	0.1508
251.699	0.1514
252.078	0.1519
252.457	0.1517
252.836	0.1502
253.215	0.1506
253.594	0.1495
253.973	0.1495
254.352	0.1474
254.731	0.1471
255.109	0.1457
255.488	0.1462
255.867	0.1461
256.245	0.1442
256.624	0.1431
257.002	0.1417
257.381	0.1423
257.759	0.1418
258.138	0.1424
258.516	0.144
258.895	0.1439
259.273	0.1422
259.651	0.141
260.03	0.1396
260.408	0.1396
260.786	0.1393
261.164	0.1397
261.542	0.1394
261.921	0.1378
262.299	0.1379
262.677	0.1386
263.055	0.1388
263.433	0.1369
263.811	0.135
264.188	0.134
264.566	0.134
264.944	0.1342
265.322	0.134
265.7	0.1336
266.077	0.1323
266.455	0.1303
266.833	0.1304
267.21	0.1301
267.588	0.1308
267.966	0.131
268.343	0.132
268.721	0.1306
269.098	0.128
269.475	0.1273
269.853	0.1287
270.23	0.1283
270.607	0.1259
270.985	0.1245
271.362	0.1233
271.739	0.124
272.116	0.1238
272.494	0.1244
272.871	0.1237
273.248	0.1232
273.625	0.1215
274.002	0.1197
274.379	0.1165
274.756	0.117
275.132	0.1161
275.509	0.1171
275.886	0.1165
276.263	0.1182
276.64	0.118
277.016	0.1171
277.393	0.116
277.77	0.1158
278.146	0.1161
278.523	0.1144
278.899	0.1128
279.276	0.1115
279.652	0.1115
280.029	0.1108
280.405	0.1094
280.782	0.1091
281.158	0.1098
281.534	0.11
281.91	0.109
282.287	0.1076
282.663	0.1076
283.039	0.108
283.415	0.1065
283.791	0.1053
284.167	0.1044
284.543	0.1052
284.919	0.1035
285.295	0.1027
285.671	0.1024
286.047	0.1028
286.423	0.1009
286.799	0.1005
287.174	0.0994
287.55	0.0987
287.926	0.0981
288.301	0.0982
288.677	0.0978
289.053	0.0964
289.428	0.0954
289.804	0.096
290.179	0.096
290.555	0.097
290.93	0.0957
291.305	0.0948
291.681	0.0955
292.056	0.0973
292.431	0.0976
292.806	0.0954
293.182	0.0931
293.557	0.0912
293.932	0.0902
294.307	0.0906
294.682	0.0915
295.057	0.0928
295.432	0.0923
295.807	0.0917
296.182	0.0907
296.557	0.0913
296.932	0.0898
297.306	0.0896
297.681	0.0885
298.056	0.0901
298.43	0.0883
298.805	0.0863
299.18	0.0846
299.554	0.0846
299.929	0.0853
300.303	0.0844
300.678	0.0828
301.052	0.0842
301.427	0.0838
301.801	0.0855
302.175	0.082
302.55	0.0817
302.924	0.0806
303.298	0.0816
303.672	0.0829
304.046	0.0825
304.421	0.0831
304.795	0.0818
305.169	0.082
305.543	0.0801
305.917	0.08
306.291	0.0789
306.664	0.0814
307.038	0.0788
307.412	0.0797
307.786	0.0771
308.16	0.0782
308.533	0.0768
308.907	0.0771
309.281	0.0772
309.654	0.0759
310.028	0.0753
310.401	0.0752
310.775	0.0748
311.148	0.0749
311.522	0.0735
311.895	0.0734
312.268	0.0737
312.642	0.0728
313.015	0.0719
313.388	0.0704
313.761	0.0707
314.135	0.072
314.508	0.0704
314.881	0.0713
315.254	0.0703
315.627	0.0709
316	0.0701
316.373	0.0687
316.746	0.0681
317.118	0.0675
317.491	0.0684
317.864	0.069
318.237	0.0685
318.61	0.0678
318.982	0.0663
319.355	0.0652
319.727	0.0651
320.1	0.0657
320.473	0.0651
320.845	0.0658
321.218	0.0649
321.59	0.0654
321.962	0.0639
322.335	0.0633
322.707	0.0635
323.079	0.0624
323.452	0.0628
323.824	0.0626
324.196	0.0628
324.568	0.0607
324.94	0.0602
325.312	0.0617
325.684	0.0628
326.056	0.0615
326.428	0.0585
326.8	0.0573
327.172	0.0571
327.544	0.057
327.915	0.055
328.287	0.0554
328.659	0.0564
329.031	0.0588
329.402	0.0575
329.774	0.0575
330.145	0.0552
330.517	0.055
330.888	0.0532
331.26	0.0538
331.631	0.0531
332.003	0.0536
332.374	0.0539
332.745	0.0542
333.117	0.0538
333.488	0.0531
333.859	0.0542
334.23	0.0541
334.601	0.0539
334.972	0.0547
335.343	0.0545
335.714	0.0542
336.085	0.0511
336.456	0.0507
336.827	0.0504
337.198	0.0517
337.569	0.0501
337.94	0.0495
338.31	0.048
338.681	0.0468
339.052	0.048
339.422	0.0482
339.793	0.0504
340.164	0.0489
340.534	0.0487
340.905	0.0469
341.275	0.0461
341.645	0.0455
342.016	0.046
342.386	0.0461
342.756	0.0472
343.127	0.0463
343.497	0.046
343.867	0.0454
344.237	0.0466
344.607	0.0455
344.977	0.0448
345.347	0.0449
345.717	0.0439
346.087	0.0433
346.457	0.0434
346.827	0.0465
347.197	0.0458
347.567	0.0433
347.936	0.0414
348.306	0.0423
348.676	0.045
349.046	0.0463
349.415	0.0465
349.785	0.0463
350.154	0.0447
350.524	0.0438
350.893	0.0407
351.263	0.0414
351.632	0.0403
352.001	0.0406
352.371	0.039
352.74	0.039
353.109	0.0395
353.478	0.0386
353.847	0.0395
354.217	0.0408
354.586	0.0402
354.955	0.0402
355.324	0.0387
355.693	0.0414
356.062	0.04
356.43	0.0404
356.799	0.0376
357.168	0.0378
357.537	0.0379
357.906	0.0395
358.274	0.0388
358.643	0.0359
359.011	0.0353
359.38	0.0371
359.749	0.0392
360.117	0.0397
360.486	0.0394
360.854	0.0379
361.222	0.0354
361.591	0.0329
361.959	0.0319
362.327	0.0327
362.695	0.0329
363.064	0.0343
363.432	0.0355
363.8	0.0361
364.168	0.0348
364.536	0.0322
364.904	0.0319
365.272	0.0339
365.64	0.035
366.008	0.0362
366.376	0.0336
366.743	0.0322
367.111	0.0305
367.479	0.0302
367.847	0.0324
368.214	0.0328
368.582	0.0328
368.949	0.0336
369.317	0.0318
369.684	0.0316
370.052	0.0286
370.419	0.0288
370.787	0.0311
371.154	0.0326
371.521	0.0344
371.889	0.0335
372.256	0.0313
372.623	0.03
372.99	0.0295
373.357	0.0304
373.724	0.0314
374.091	0.0308
374.458	0.0295
374.825	0.0291
375.192	0.0283
375.559	0.0292
375.926	0.0287
376.293	0.0291
376.659	0.0283
377.026	0.0276
377.393	0.0279
377.759	0.029
378.126	0.0285
378.492	0.028
378.859	0.0269
379.225	0.0262
379.592	0.0252
379.958	0.0258
380.325	0.0259
380.691	0.028
381.057	0.027
381.423	0.0269
381.79	0.0245
382.156	0.0237
382.522	0.0244
382.888	0.0268
383.254	0.0295
383.62	0.0304
383.986	0.0292
384.352	0.0269
384.718	0.0247
385.084	0.0254
385.449	0.026
385.815	0.0274
386.181	0.0266
386.547	0.0291
386.912	0.0276
387.278	0.0276
387.643	0.0236
388.009	0.0244
388.374	0.0238
388.74	0.0256
389.105	0.0248
389.471	0.0244
389.836	0.0253
390.201	0.0265
390.566	0.0263
390.932	0.0248
391.297	0.0225
391.662	0.0214
392.027	0.023
392.392	0.0233
392.757	0.0232
393.122	0.0205
393.487	0.0211
393.852	0.0201
394.217	0.0196
394.582	0.0209
394.946	0.0229
395.311	0.0232
395.676	0.0206
396.04	0.0217
396.405	0.0243
396.77	0.0259
397.134	0.0215
397.499	0.0204
397.863	0.0204
398.227	0.0244
398.592	0.0212
398.956	0.0211
399.32	0.0191
399.685	0.0221
400.049	0.0214
400.413	0.0205
400.777	0.0184
401.141	0.0193
401.505	0.0195
401.869	0.0208
402.233	0.02
402.597	0.0201
402.961	0.0192
403.325	0.0212
403.689	0.0226
404.053	0.0244
404.416	0.023
404.78	0.0204
405.144	0.019
405.507	0.0176
405.871	0.0186
406.234	0.0191
406.598	0.0178
406.961	0.0181
407.325	0.0166
407.688	0.0174
408.051	0.0174
408.415	0.0204
408.778	0.0216
409.141	0.0221
409.504	0.0203
409.867	0.0169
410.23	0.0162
410.593	0.0167
410.956	0.0179
411.319	0.0167
411.682	0.0139
412.045	0.0159
412.408	0.016
412.771	0.0173
413.134	0.0149
413.496	0.0154
413.859	0.0163
414.222	0.02
414.584	0.0234
414.947	0.0242
415.309	0.0208
415.672	0.02
416.034	0.018
416.396	0.0177
416.759	0.0157
417.121	0.0153
417.483	0.0145
417.846	0.0134
418.208	0.0157
418.57	0.0175
418.932	0.0175
419.294	0.0148
419.656	0.0144
420.018	0.0156
420.38	0.0165
420.742	0.0165
421.104	0.016
421.466	0.0152
421.827	0.0136
422.189	0.0127
422.551	0.0135
422.912	0.016
423.274	0.0179
423.636	0.019
423.997	0.0188
424.359	0.0169
424.72	0.0171
425.081	0.0174
425.443	0.0182
425.804	0.0175
426.165	0.0176
426.527	0.0162
426.888	0.0131
427.249	0.0108
427.61	0.0093
427.971	0.01
428.332	0.0113
428.693	0.013
429.054	0.0138
429.415	0.014
429.776	0.0138
430.137	0.0138
430.498	0.0149
430.858	0.0166
431.219	0.0157
431.58	0.0136
431.94	0.0132
432.301	0.0133
432.661	0.0127
433.022	0.0112
433.382	0.0131
433.743	0.0152
434.103	0.017
434.463	0.0166
434.824	0.0158
435.184	0.0151
435.544	0.0163
435.904	0.0186
436.264	0.0192
436.624	0.018
436.985	0.0137
437.345	0.0138
437.704	0.0133
438.064	0.0149
438.424	0.0127
438.784	0.0116
439.144	0.0107
439.504	0.0125
439.863	0.014
440.223	0.0145
440.583	0.0127
440.942	0.012
441.302	0.0127
441.661	0.0132
442.021	0.0144
442.38	0.0142
442.739	0.0145
443.099	0.0115
443.458	0.0121
443.817	0.0122
444.176	0.0148
444.536	0.0145
444.895	0.0154
445.254	0.0119
445.613	0.0127
445.972	0.0134
446.331	0.0151
446.69	0.0143
447.049	0.0099
447.407	0.0102
447.766	0.0099
448.125	0.0127
448.484	0.015
448.842	0.0136
449.201	0.0135
449.559	0.0094
449.918	0.0112
450.276	0.0108
450.635	0.0123
450.993	0.0126
451.352	0.013
451.71	0.0135
452.068	0.0095
452.426	0.0092
452.785	0.0104
453.143	0.0134
453.501	0.0151
453.859	0.0124
454.217	0.0118
454.575	0.0063
454.933	0.0077
455.291	0.0096
455.649	0.0123
456.006	0.0114
456.364	0.009
456.722	0.0094
457.079	0.0105
457.437	0.0108
457.795	0.0127
458.152	0.0125
458.51	0.0143
458.867	0.0114
459.225	0.011
459.582	0.0078
459.939	0.0082
460.297	0.0093
460.654	0.0113
461.011	0.0142
461.368	0.0154
461.725	0.0133
462.082	0.0116
462.44	0.0089
462.797	0.0086
463.153	0.0082
463.51	0.0073
463.867	0.0083
464.224	0.0091
464.581	0.0107
464.938	0.0142
465.294	0.0144
465.651	0.0145
466.008	0.0085
466.364	0.0088
466.721	0.0078
467.077	0.0085
467.434	0.0063
467.79	0.01
468.146	0.0103
468.503	0.0102
468.859	0.0066
469.215	0.0097
469.571	0.0096
469.927	0.0136
470.284	0.0133
470.64	0.015
470.996	0.0126
471.352	0.0093
471.707	0.0071
472.063	0.0082
472.419	0.0122
472.775	0.0136
473.131	0.0116
473.486	0.0087
473.842	0.0092
474.198	0.0094
474.553	0.01
474.909	0.0116
475.264	0.0135
475.62	0.0135
475.975	0.0131
476.331	0.0119
476.686	0.0125
477.041	0.01
477.396	0.0088
477.752	0.008
478.107	0.0107
478.462	0.0107
478.817	0.0098
479.172	0.0083
479.527	0.0073
479.882	0.0072
480.237	0.0047
480.591	0.004
480.946	0.0072
481.301	0.0098
481.656	0.0115
482.01	0.0083
482.365	0.007
482.72	0.009
483.074	0.0079
483.429	0.0096
483.783	0.008
484.137	0.0088
484.492	0.0072
484.846	0.0053
485.2	0.0068
485.555	0.0083
485.909	0.0081
486.263	0.0081
486.617	0.0075
486.971	0.0093
487.325	0.0085
487.679	0.0065
488.033	0.0062
488.387	0.0069
488.741	0.0058
489.094	0.0074
489.448	0.0062
489.802	0.0083
490.156	0.0051
490.509	0.0064
490.863	0.0075
491.216	0.0088
491.57	0.0094
491.923	0.0083
492.277	0.008
492.63	0.0082
492.983	0.0089
493.337	0.0084
493.69	0.0061
494.043	0.0046
494.396	0.007
494.749	0.0069
495.102	0.0059
495.455	0.004
495.808	0.0059
496.161	0.0087
496.514	0.0084
496.867	0.0069
497.22	0.0069
497.572	0.008
497.925	0.0089
498.278	0.0095
498.63	0.0083
498.983	0.005
499.335	0.0035
499.688	0.0044
500.04	0.0056
500.393	0.0057
500.745	0.0069
501.097	0.0077
501.449	0.0077
501.802	0.0064
502.154	0.0064
502.506	0.0079
502.858	0.0062
503.21	0.0064
503.562	0.0039
503.914	0.004
504.266	0.0036
504.618	0.0043
504.969	0.0069
505.321	0.0076
505.673	0.0083
506.025	0.0063
506.376	0.0044
506.728	0.0054
507.079	0.0053
507.431	0.006
507.782	0.0039
508.134	0.0041
508.485	0.005
508.836	0.0061
509.188	0.0047
509.539	0.0031
509.89	0.0052
510.241	0.0051
510.592	0.0048
510.943	0.0027
511.294	0.0075
511.645	0.0079
511.996	0.0079
512.347	0.0052
512.698	0.0048
513.049	0.0044
513.399	0.0071
513.75	0.0087
514.101	0.0091
514.451	0.0067
514.802	0.0049
515.152	0.0037
515.503	0.0042
515.853	0.0087
516.203	0.0084
516.554	0.0062
516.904	0.0025
517.254	0.0025
517.604	0.0034
517.955	0.0031
518.305	0.001
518.655	0.0012
519.005	0.0013
519.355	0.0041
519.705	0.003
520.055	0.0026
520.404	0.0013
520.754	0.0004
521.104	0.0017
521.454	0.0027
521.803	0.0048
522.153	0.0045
522.502	0.0043
522.852	0.0054
523.201	0.0055
523.551	0.0055
523.9	0.0008
524.249	0.0008
524.599	0.0019
524.948	0.0061
525.297	0.0058
525.646	0.0025
525.995	0.0005
526.344	0.0011
526.694	0.0026
527.042	0.0028
527.391	-0.0008
527.74	-0.0028
528.089	-0.0018
528.438	0.0016
528.787	0.0028
529.135	-0.0014
529.484	-0.0021
529.833	0.0009
530.181	0.0025
530.53	0.0009
530.878	-0.0031
531.227	-0.0014
531.575	-0.0007
531.923	0.0009
532.271	0
532.62	0.0018
532.968	0.0002
533.316	0.0001
533.664	0.0026
534.012	0.0069
534.36	0.0067
534.708	0.0039
535.056	0.0006
535.404	0.0033
535.752	0.0037
536.1	0.0029
536.447	0.0003
536.795	-0.0003
537.143	0.0016
537.49	0.0014
537.838	0.0006
538.185	0.0026
538.533	0.003
538.88	0.0009
539.228	0.0024
539.575	0.0024
539.922	0.0062
540.269	0.0021
540.617	0.0024
540.964	-0.0019
541.311	-0.0023
541.658	-0.0015
542.005	0.002
542.352	0.0023
542.699	0.0014
543.045	-0.0002
543.392	0.0015
543.739	0.0005
544.086	-0.0015
544.432	-0.0043
544.779	-0.0037
545.126	-0.0016
545.472	0.0004
545.819	0.0004
546.165	-0.0017
546.512	-0.0004
546.858	-0.0017
547.204	-0.0005
547.55	-0.0034
547.897	-0.0027
548.243	0.0013
548.589	0.0021
548.935	0.0032
549.281	0.0005
549.627	-0.0007
549.973	-0.0023
550.319	-0.0026
550.665	-0.0016
551.01	0.0005
551.356	0.002
551.702	0.0028
552.048	0.0044
552.393	0.0009
552.739	-0.0001
553.084	-0.0031
553.43	0.0006
553.775	0.0009
554.12	0.0009
554.466	-0.003
554.811	-0.0047
555.156	-0.0056
555.502	-0.0038
555.847	0.0002
556.192	0.0025
556.537	0.004
556.882	0.0008
557.227	-0.0008
557.572	-0.0042
557.917	-0.0037
558.261	-0.0011
558.606	0.0028
558.951	-0.0003
559.295	-0.0013
559.64	-0.0041
559.985	0.0002
560.329	0.0001
560.674	0.0027
561.018	0.005
561.363	0.0039
561.707	0.0005
562.051	-0.0035
562.395	-0.005
562.74	-0.0034
563.084	-0.0045
563.428	-0.001
563.772	-0.0005
564.116	-0.0011
564.46	-0.001
564.804	-0.0024
565.148	0.0003
565.492	-0.0015
565.835	-0.0016
566.179	-0.0027
566.523	-0.0023
566.866	-0.0016
567.21	-0.0024
567.554	-0.0023
567.897	-0.0018
568.24	-0.0006
568.584	0.0002
568.927	-0.0012
569.271	-0.0002
569.614	-0.0012
569.957	0.0005
570.3	0.0009
570.643	0.0019
570.986	-0.0005
571.329	-0.0001
571.672	-0.0002
572.015	-0.0004
572.358	-0.0008
572.701	-0.0021
573.044	-0.0028
573.387	-0.0049
573.729	-0.0074
574.072	-0.0073
574.414	-0.0069
574.757	-0.0056
575.099	-0.0012
575.442	0.0008
575.784	0.002
576.127	-0.0012
576.469	-0.0024
576.811	-0.0034
577.153	-0.0043
577.496	-0.0065
577.838	-0.0036
578.18	-0.0026
578.522	-0.002
578.864	-0.0077
579.206	-0.0098
579.548	-0.0074
579.889	-0.0052
580.231	-0.007
580.573	-0.0113
580.915	-0.0098
581.256	-0.0052
581.598	-0.0008
581.939	0.0012
582.281	-0.0052
582.622	-0.004
582.964	-0.003
583.305	-0.0009
583.646	-0.0027
583.988	-0.0107
584.329	-0.0105
584.67	-0.0089
585.011	-0.0045
585.352	0.0004
585.693	-0.0022
586.034	-0.0015
586.375	-0.002
586.716	-0.0002
587.057	-0
587.398	-0.0062
587.738	-0.0086
588.079	-0.0063
588.42	-0.0036
588.76	0.0005
589.101	-0
589.441	-0.0007
589.782	-0.0055
590.122	-0.0075
590.463	-0.0067
590.803	-0.0031
591.143	-0.0041
591.483	-0.0023
591.823	-0.0014
592.164	-0.0002
592.504	-0.0049
592.844	-0.008
593.184	-0.0044
593.523	0.0002
593.863	0.0025
594.203	-0.0042
594.543	-0.0091
594.883	-0.008
595.222	-0.0058
595.562	-0.008
595.901	-0.0094
596.241	-0.0097
596.58	-0.0043
596.92	-0.0026
597.259	0.0014
597.599	-0.0019
597.938	-0.0067
598.277	-0.0043
598.616	-0
598.955	0.0015
599.295	-0.0025
599.634	-0.0089
599.973	-0.0114
600.312	-0.0139
600.65	-0.0073
600.989	-0.002
601.328	0.004
601.667	-0.0039
602.005	-0.0028
602.344	-0.0043
602.683	-0.0048
603.021	-0.0071
603.36	-0.0061
603.698	-0.0027
604.037	-0.0019
604.375	-0.003
604.713	-0.002
605.052	-0.0042
605.39	-0.0055
605.728	-0.0057
606.066	-0.0092
606.404	-0.0124
606.742	-0.013
607.08	-0.0104
607.418	-0.0058
607.756	-0.0073
608.094	-0.0099
608.431	-0.011
608.769	-0.0102
609.107	-0.0037
609.444	-0.0055
609.782	-0.0035
610.12	-0.0075
610.457	-0.0049
610.794	-0.003
611.132	-0.0025
611.469	-0.003
611.806	-0.0042
612.144	-0.0026
612.481	-0.0034
612.818	-0.0042
613.155	-0.0039
613.492	-0.0012
613.829	-0.0029
614.166	-0.0041
614.503	-0.0065
614.84	-0.0059
615.176	-0.0069
615.513	-0.0071
615.85	-0.0076
616.187	-0.0072
616.523	-0.0074
616.86	-0.0079
617.196	-0.0087
617.533	-0.0108
617.869	-0.0076
618.205	-0.0057
618.542	-0.0027
618.878	-0.001
619.214	-0.0026
619.55	-0.0036
619.886	-0.004
620.222	-0.0015
620.558	-0.0028
620.894	-0.0013
621.23	-0.0031
621.566	-0.0037
621.902	-0.0048
622.238	-0.001
622.573	0.0024
622.909	-0.002
623.244	-0.005
623.58	-0.006
623.916	-0.0053
624.251	-0.0039
624.586	-0.0078
624.922	-0.0096
625.257	-0.0063
625.592	-0.0005
625.927	0.0034
626.263	-0.0005
626.598	-0.0074
626.933	-0.009
627.268	-0.0087
627.603	-0.0051
627.938	-0.0057
628.272	-0.0077
628.607	-0.0103
628.942	-0.0093
629.277	-0.0042
629.611	-0.0026
629.946	-0.0035
630.281	-0.0066
630.615	-0.0067
630.949	-0.002
631.284	-0.0016
631.618	0.0003
631.953	-0.0042
632.287	-0.0028
632.621	-0.0003
632.955	-0.0006
633.289	-0.002
633.623	-0.0061
633.957	-0.0035
634.291	-0.0054
634.625	-0.006
634.959	-0.0076
635.293	-0.0071
635.627	-0.0098
635.96	-0.0096
636.294	-0.0115
636.627	-0.0119
636.961	-0.0152
637.294	-0.0148
637.628	-0.0115
637.961	-0.0086
638.295	-0.0065
638.628	-0.0119
638.961	-0.0121
639.294	-0.0109
639.628	-0.005
639.961	-0.0013
640.294	0.0018
640.627	-0.0018
640.96	-0.0057
641.293	-0.0117
641.625	-0.0118
641.958	-0.0106
642.291	-0.0018
642.624	0.0014
642.956	-0.0003
643.289	-0.0079
643.621	-0.0086
643.954	-0.0112
644.286	-0.015
644.619	-0.0137
644.951	-0.0115
645.283	-0.0074
645.616	-0.0109
645.948	-0.0098
646.28	-0.0091
646.612	-0.0058
646.944	-0.0057
647.276	-0.0037
647.608	-0.0028
647.94	-0.0032
648.272	-0.0031
648.603	-0.0042
648.935	-0.0025
649.267	-0.0019
649.598	-0.0036
649.93	-0.0084
650.261	-0.0085
650.593	-0.0031
650.924	-0.0003
651.256	-0.0006
651.587	-0.0043
651.918	-0.0027
652.25	-0.0047
652.581	-0.0019
652.912	-0.003
653.243	-0.0021
653.574	-0.0065
653.905	-0.0102
654.236	-0.0118
654.567	-0.0096
654.897	-0.0076
655.228	-0.0025
655.559	-0.0018
655.89	0
656.22	-0.004
656.551	-0.0041
656.881	-0.0043
657.212	-0.0069
657.542	-0.0077
657.872	-0.0117
658.203	-0.0086
658.533	-0.034
658.863	-0.0271
659.193	-0.0134
659.523	-0.0039
659.853	0.0108
660.183	-0.0028
660.513	-0.0047
660.843	-0.0034
661.173	-0.0037
661.503	-0.0064
661.833	-0.0044
662.162	-0.0034
662.492	0.0022
662.822	-0.0003
663.151	-0.0041
663.481	-0.0067
663.81	-0.009
664.139	-0.0052
664.469	-0.008
664.798	-0.003
665.127	-0.0056
665.456	-0.0034
665.785	-0.0046
666.114	-0.0055
666.443	-0.0066
666.772	-0.0086
667.101	-0.0107
667.43	-0.0109
667.759	-0.0069
668.088	-0.0017
668.416	-0.0037
668.745	-0.0058
669.074	-0.0118
669.402	-0.0127
669.731	-0.0158
670.059	-0.015
670.388	-0.0109
670.716	-0.0095
671.044	-0.0043
671.372	-0.0053
671.701	-0.0059
672.029	-0.0053
672.357	-0.0077
672.685	-0.0075
673.013	-0.0087
673.341	-0.006
673.669	-0.0065
673.996	-0.0077
674.324	-0.0145
674.652	-0.0149
674.98	-0.0132
675.307	-0.0103
675.635	-0.0111
675.962	-0.009
676.29	-0.0065
676.617	-0.0041
676.945	-0.006
677.272	-0.0045
677.599	-0.0048
677.926	-0.0063
678.253	-0.0071
678.581	-0.0071
678.908	-0.0094
679.235	-0.0101
679.561	-0.0071
679.888	-0.002
680.215	-0.0024
680.542	-0.0043
680.869	-0.0073
681.195	-0.0044
681.522	-0.0045
681.849	-0.0038
682.175	-0.0078
682.502	-0.0086
682.828	-0.0069
683.154	-0.0069
683.481	-0.003
683.807	-0.0046
684.133	-0.0054
684.459	-0.0087
684.785	-0.0072
685.111	-0.0059
685.437	-0.0073
685.763	-0.0102
686.089	-0.0138
686.415	-0.0167
686.741	-0.0122
687.067	-0.0074
687.392	-0.0042
687.718	-0.0094
688.043	-0.0115
688.369	-0.0121
688.694	-0.0066
689.02	-0.0061
689.345	-0.0008
689.67	-0.0051
689.996	-0.0044
690.321	-0.0089
690.646	-0.0084
690.971	-0.01
691.296	-0.0115
691.621	-0.0116
691.946	-0.0085
692.271	-0.008
692.596	-0.0046
692.921	-0.0033
693.245	0.0021
693.57	-0.0027
693.895	-0.0056
694.219	-0.0085
694.544	-0.0024
694.868	-0.0022
695.193	-0.0068
695.517	-0.0107
695.841	-0.0122
696.166	-0.0121
696.49	-0.0133
696.814	-0.0081
697.138	-0.0036
697.462	-0.0063
697.786	-0.0107
698.11	-0.0119
698.434	-0.0069
698.758	-0.0048
699.081	-0.0056
699.405	-0.0061
699.729	-0.0106
700.052	-0.0129
700.376	-0.0105
700.7	-0.007
701.023	-0.0048
701.346	-0.0076
701.67	-0.0087
701.993	-0.0087
702.316	-0.0093
702.639	-0.0101
702.963	-0.0156
703.286	-0.0152
703.609	-0.0164
703.932	-0.0141
704.255	-0.0127
704.578	-0.0133
704.9	-0.0107
705.223	-0.0123
705.546	-0.0084
705.868	-0.0056
706.191	-0.0085
706.514	-0.0115
706.836	-0.0081
707.159	-0.0068
707.481	-0.0049
707.803	-0.0099
708.126	-0.0049
708.448	-0.0104
708.77	-0.0105
709.092	-0.0111
709.414	-0.0051
709.736	-0.0045
710.058	-0.0091
710.38	-0.0124
710.702	-0.0121
711.024	-0.0106
711.345	-0.0085
711.667	-0.0082
711.989	-0.0081
712.31	-0.0059
712.632	-0.0064
712.953	-0.0023
713.275	-0.006
713.596	-0.0037
713.917	-0.0059
714.239	-0.0069
714.56	-0.0064
714.881	-0.0076
715.202	-0.0067
715.523	-0.0102
715.844	-0.0087
716.165	-0.0098
716.486	-0.0113
716.807	-0.0139
717.128	-0.0114
717.448	-0.0121
717.769	-0.0099
718.09	-0.0099
718.41	-0.0047
718.731	-0.0046
719.051	-0.0037
719.372	-0.0043
719.692	-0.0064
720.012	-0.0069
720.332	-0.0101
720.653	-0.0109
720.973	-0.0128
721.293	-0.0119
721.613	-0.0095
721.933	-0.0034
722.253	-0.0014
722.573	-0.0019
722.892	-0.0076
723.212	-0.0144
723.532	-0.0197
723.851	-0.0175
724.171	-0.0145
724.491	-0.014
724.81	-0.0147
725.129	-0.0085
725.449	-0.0015
725.768	0.0001
726.087	-0.0014
726.407	-0.0061
726.726	-0.0069
727.045	-0.0068
727.364	-0.0063
727.683	-0.0092
728.002	-0.013
728.321	-0.0118
728.64	-0.0087
728.958	-0.0061
729.277	-0.0093
729.596	-0.0081
729.914	-0.0103
730.233	-0.0032
730.551	-0.0074
730.87	-0.0099
731.188	-0.0103
731.507	-0.0065
731.825	-0.0065
732.143	-0.012
732.461	-0.0155
732.779	-0.0104
733.097	-0.0086
733.415	-0.0103
733.733	-0.0159
734.051	-0.0138
734.369	-0.0112
734.687	-0.0099
735.005	-0.0094
735.322	-0.0101
735.64	-0.0091
735.957	-0.0075
736.275	-0.0046
736.592	-0.0012
736.91	-0.0041
737.227	-0.0067
737.544	-0.0062
737.862	-0.0038
738.179	-0.0017
738.496	-0.0021
738.813	-0.0077
739.13	-0.0086
739.447	-0.0085
739.764	-0.0104
740.081	-0.0129
740.398	-0.015
740.714	-0.0086
741.031	-0.0084
741.348	-0.0078
741.664	-0.0109
741.981	-0.0138
742.297	-0.0117
742.614	-0.0085
742.93	-0.0045
743.246	-0.0054
743.563	-0.0084
743.879	-0.0111
744.195	-0.0115
744.511	-0.012
744.827	-0.0083
745.143	-0.0143
745.459	-0.0149
745.775	-0.0093
746.091	-0.0045
746.406	0.0001
746.722	-0.008
747.038	-0.0062
747.353	-0.011
747.669	-0.0098
747.984	-0.0143
748.3	-0.0095
748.615	-0.0142
748.93	-0.0112
749.246	-0.0099
749.561	-0.0086
749.876	-0.0128
750.191	-0.0173
750.506	-0.0145
750.821	-0.0087
751.136	-0.0126
751.451	-0.0042
751.766	-0.0059
752.08	-0.0044
752.395	-0.0148
752.71	-0.0187
753.024	-0.0166
753.339	-0.0084
753.653	-0.0036
753.968	-0.0023
754.282	-0.0067
754.596	-0.0027
754.911	-0.0014
755.225	0.0015
755.539	-0.0073
755.853	-0.007
756.167	-0.0095
756.481	-0.0065
756.795	-0.0123
757.109	-0.0115
757.423	-0.0113
757.736	-0.0048
758.05	-0.0033
758.364	-0.0033
758.677	-0.0094
758.991	-0.0096
759.304	-0.0079
759.618	-0.0024
759.931	-0.0064
760.244	-0.012
760.558	-0.0134
760.871	-0.0131
761.184	-0.0084
761.497	-0.0065
761.81	-0.0063
762.123	-0.0102
762.436	-0.0154
762.749	-0.0173
763.062	-0.0166
763.374	-0.0189
763.687	-0.0167
764	-0.0153
764.312	-0.0086
764.625	-0.0062
764.937	-0.0063
765.25	-0.0099
765.562	-0.0139
765.874	-0.011
766.186	-0.0125
766.499	-0.0112
766.811	-0.0156
767.123	-0.0191
767.435	-0.0196
767.747	-0.0189
768.059	-0.0106
768.37	-0.0099
768.682	-0.0076
768.994	-0.0121
769.306	-0.011
769.617	-0.0135
769.929	-0.0109
770.24	-0.0121
770.552	-0.0152
770.863	-0.0222
771.174	-0.017
771.486	-0.0134
771.797	-0.0106
772.108	-0.0127
772.419	-0.009
772.73	-0.0092
773.041	-0.0106
773.352	-0.014
773.663	-0.0125
773.974	-0.0108
774.285	-0.009
774.595	-0.0067
774.906	-0.0079
775.217	-0.0077
775.527	-0.0096
775.838	-0.007
776.148	-0.0094
776.458	-0.0098
776.769	-0.0126
777.079	-0.0074
777.389	-0.0091
777.699	-0.008
778.009	-0.0105
778.319	-0.0079
778.629	-0.0105
778.939	-0.0078
779.249	-0.0058
779.559	-0.0045
779.869	-0.009
780.178	-0.0154
780.488	-0.0179
780.798	-0.0187
781.107	-0.0127
781.417	-0.0139
781.726	-0.0162
782.035	-0.0196
782.345	-0.0113
782.654	-0.0095
782.963	-0.0063
783.272	-0.0108
783.581	-0.011
783.89	-0.0131
784.199	-0.0104
784.508	-0.0158
784.817	-0.0195
785.126	-0.0315
785.434	-0.0227
785.743	-0.0173
786.052	-0.0081
786.36	-0.0132
786.669	-0.0124
786.977	-0.0174
787.285	-0.0146
787.594	-0.0186
787.902	-0.0148
788.21	-0.0143
788.518	-0.0111
788.826	-0.0099
789.135	-0.0119
789.442	-0.0136
789.75	-0.0098
790.058	-0.0086
790.366	-0.0099
790.674	-0.0147
790.981	-0.0146
791.289	-0.0095
791.597	-0.0129
791.904	-0.0176
792.212	-0.022
792.519	-0.0168
792.826	-0.0094
793.134	-0.0098
793.441	-0.0108
793.748	-0.0115
794.055	-0.0042
794.362	-0.0045
794.669	-0.0062
794.976	-0.0118
795.283	-0.0125
795.59	-0.0099
795.897	-0.0081
796.203	-0.0085
796.51	-0.0118
796.817	-0.016
797.123	-0.0116
797.43	-0.0095
797.736	-0.0087
798.042	-0.0143
798.349	-0.0138
798.655	-0.0097
798.961	-0.0103
799.267	-0.0142
799.573	-0.0194
799.879	-0.0214
800.185	-0.0229
800.491	-0.0153
800.797	-0.0071
801.103	-0.0032
801.408	-0.0045
801.714	-0.0051
802.02	-0.0061
802.325	-0.0088
802.631	-0.0129
802.936	-0.0144
803.242	-0.017
803.547	-0.0149
803.852	-0.0211
804.157	-0.0221
804.462	-0.025
804.768	-0.0158
805.073	-0.0125
805.378	-0.0077
805.682	-0.0073
805.987	-0.0076
806.292	-0.0098
806.597	-0.0044
806.902	-0.0104
807.206	-0.0122
807.511	-0.0214
807.815	-0.0188
808.12	-0.0215
808.424	-0.0192
808.728	-0.0121
809.033	-0.01
809.337	-0.0133
809.641	-0.0122
809.945	-0.0117
810.249	-0.0068
810.553	-0.0089
810.857	-0.0103
811.161	-0.012
811.465	-0.017
811.768	-0.0176
812.072	-0.0188
812.376	-0.0141
812.679	-0.0149
812.983	-0.0153
813.286	-0.0208
813.59	-0.0173
813.893	-0.012
814.196	-0.0084
814.499	-0.0076
814.803	-0.0096
815.106	-0.019
815.409	-0.0184
815.712	-0.0179
816.015	-0.0049
816.318	-0.015
816.62	-0.0184
816.923	-0.0191
817.226	-0.0163
817.528	-0.0125
817.831	-0.0144
818.133	-0.0094
818.436	-0.0117
818.738	-0.0093
819.041	-0.0114
819.343	-0.0107
819.645	-0.0109
819.947	-0.0057
820.249	-0.0102
820.551	-0.0113
820.853	-0.0179
821.155	-0.0195
821.457	-0.0182
821.759	-0.0142
822.061	-0.0066
822.362	-0.0127
822.664	-0.0105
822.966	-0.0097
823.267	-0.0104
823.569	-0.0084
823.87	-0.014
824.171	-0.0101
824.473	-0.0126
824.774	-0.0068
825.075	-0.0113
825.376	-0.0117
825.677	-0.0157
825.978	-0.0054
826.279	-0.0098
826.58	-0.0043
826.881	-0.0087
827.181	-0.001
827.482	-0.0006
827.783	-0.0005
828.083	-0.0158
828.384	-0.0291
828.684	-0.03
828.985	-0.0118
829.285	-0.0038
829.585	-0.0068
829.885	-0.013
830.185	-0.0183
830.486	-0.0103
830.786	-0.0055
831.086	0.0032
831.385	-0.0057
831.685	-0.0167
831.985	-0.027
832.285	-0.0191
832.585	-0.0117
832.884	-0.0028
833.184	-0.0074
833.483	-0.024
833.783	-0.0244
834.082	-0.0287
834.381	-0.0063
834.681	-0.0124
834.98	0.0012
835.279	-0.0085
835.578	-0.0061
835.877	-0.0124
836.176	-0.0083
836.475	-0.0014
836.774	-0.0119
837.072	-0.0218
837.371	-0.0204
837.67	-0.0087
837.968	-0.0039
838.267	-0.0098
838.565	-0.0185
838.864	-0.0219
839.162	-0.0214
839.46	-0.0261
839.759	-0.0218
840.057	-0.027
840.355	-0.0121
840.653	-0.0121
840.951	-0.0147
841.249	-0.0149
841.547	-0.0054
841.845	0.0052
842.142	0.0049
842.44	-0.0116
842.738	-0.0137
843.035	-0.0186
843.333	-0.0063
843.63	-0.0149
843.928	-0.0063
844.225	-0.0113
844.522	-0.0029
844.82	-0.0107
845.117	-0.0108
845.414	-0.0185
845.711	-0.0156
846.008	-0.0137
846.305	-0.0212
846.602	-0.0366
846.898	-0.0355
847.195	-0.029
847.492	-0.018
847.788	-0.0227
848.085	-0.0178
848.382	-0.0047
848.678	-0.008
848.974	-0.0069
849.271	-0.0144
849.567	-0.0088
849.863	-0.0136
850.159	-0.0185
850.455	-0.009
850.751	-0.0092
851.047	-0.0094
851.343	-0.0252
851.639	-0.0203
851.935	-0.0188
852.23	-0.0213
852.526	-0.0133
852.822	-0.025
853.117	-0.0097
853.413	-0.0144
853.708	-0.0178
854.003	-0.0038
854.299	-0.0022
854.594	0.0099
854.889	-0.0081
855.184	-0.0023
855.479	0.0033
855.774	0.0035
856.069	-0.0177
856.364	-0.0257
856.659	-0.0245
856.954	-0.0054
857.248	0.007
857.543	0.0091
857.837	-0.0069
858.132	-0.0086
858.426	-0.0156
858.721	-0.0125
859.015	-0.0201
859.309	-0.029
859.604	-0.0274
859.898	-0.0158
860.192	-0.0034
860.486	-0.0138
860.78	-0.0193
861.074	-0.0122
861.367	0.0275
861.661	0.0297
861.955	0.0227
862.248	-0.0088
862.542	-0.0184
862.836	-0.024
863.129	-0.0267
863.422	-0.0127
863.716	-0.0204
864.009	0.0057
864.302	-0.0138
864.595	-0.0121
864.889	-0.0361
865.182	-0.0315
865.475	-0.0266
865.767	-0.0452
866.06	-0.0541
866.353	-0.0469
866.646	-0.0202
866.938	-0.0162
867.231	-0.0205
867.524	0.0075
867.816	0.0365
868.109	0.0584
868.401	0.0315
868.693	0.0106
868.985	-0.0117
869.278	-0.0113
869.57	-0.004
869.862	-0.0178
870.154	-0.0273
870.446	-0.049
870.738	-0.0375
871.029	-0.0384
871.321	-0.008
871.613	0.0078
871.904	-0.003
872.196	-0.0226
872.487	-0.0327
872.779	-0.022
873.07	0.0051
873.362	0.0261
873.653	0.0381
873.944	0.0025
874.235	-0.0287
874.526	-0.025
874.817	-0.0171
875.108	0.0021
875.399	0.0042
875.69	0.0268
875.981	-0.0005
876.271	-0.0084
876.562	-0.0259
876.853	-0.0259
877.143	-0.0222
877.434	-0.015
877.724	-0.0221
878.014	-0.0101
878.305	-0.0197
878.595	0.0212
878.885	0.0202
879.175	0.0155
879.465	0.0033
879.755	0.0131
880.045	0.0344
880.335	0.0334
880.624	0.014
880.914	0.014
