Data from 62SS06MU_080517_1a_Absorbance_15-48-40-815.txt Node
Date: Sun Aug 06 15:48:40 MDT 2017
User: Tank Lab
Spectrometer: FLMS01220
Trigger mode: 0
Integration Time (sec): 1.000000E-1
Scans to average: 10
Electric dark correction enabled: true
Nonlinearity correction enabled: false
Boxcar width: 1
XAxis mode: Wavelengths
Number of Pixels in Spectrum: 2048
>>>>>Begin Spectral Data<<<<<
179.47	-0.2336
179.856	-0.2336
180.241	-0.1642
180.626	0.034
181.011	0.4928
181.396	0.1352
181.781	-0.2405
182.166	1.4058
182.551	-0
182.936	0.4939
183.321	-0
183.706	0.205
184.091	0.313
184.476	-0
184.86	0.099
185.245	0.1708
185.63	0.8647
186.015	1.0332
186.399	0.1472
186.784	-0.361
187.169	-0
187.553	-0.0876
187.938	-0.8095
188.322	0.2261
188.707	0.2068
189.091	0.2466
189.475	0.286
189.86	0.286
190.244	0.3461
190.629	0.3397
191.013	0.4003
191.397	0.4077
191.781	0.4815
192.165	0.5181
192.55	0.5709
192.934	0.632
193.318	0.6663
193.702	0.6943
194.086	0.6793
194.47	0.703
194.854	0.7269
195.238	0.7465
195.622	0.7615
196.006	0.7595
196.389	0.7819
196.773	0.798
197.157	0.8218
197.541	0.8293
197.924	0.8489
198.308	0.8679
198.692	0.8601
199.075	0.8495
199.459	0.8579
199.843	0.8547
200.226	0.8577
200.61	0.8423
200.993	0.8425
201.376	0.8387
201.76	0.8423
202.143	0.8467
202.527	0.8624
202.91	0.8656
203.293	0.8768
203.676	0.8761
204.059	0.8701
204.443	0.854
204.826	0.8452
205.209	0.8507
205.592	0.851
205.975	0.8497
206.358	0.8367
206.741	0.8439
207.124	0.8395
207.507	0.8537
207.89	0.8535
208.273	0.857
208.655	0.8573
209.038	0.8677
209.421	0.8675
209.804	0.8602
210.186	0.8524
210.569	0.8545
210.951	0.85
211.334	0.8526
211.717	0.8524
212.099	0.8527
212.482	0.842
212.864	0.8434
213.246	0.8392
213.629	0.8406
214.011	0.8368
214.393	0.8334
214.776	0.8321
215.158	0.8299
215.54	0.828
215.922	0.8234
216.305	0.8177
216.687	0.8204
217.069	0.8225
217.451	0.8201
217.833	0.8125
218.215	0.8102
218.597	0.814
218.979	0.81
219.361	0.8052
219.742	0.7949
220.124	0.7907
220.506	0.7825
220.888	0.7829
221.27	0.7809
221.651	0.7822
222.033	0.7753
222.415	0.7758
222.796	0.7757
223.178	0.7733
223.559	0.7685
223.941	0.766
224.322	0.7642
224.704	0.7641
225.085	0.7571
225.466	0.7539
225.848	0.7473
226.229	0.7472
226.61	0.742
226.992	0.7392
227.373	0.7344
227.754	0.7308
228.135	0.7288
228.516	0.7247
228.897	0.7233
229.278	0.7163
229.659	0.7148
230.04	0.7086
230.421	0.7074
230.802	0.7031
231.183	0.7053
231.564	0.7047
231.944	0.7006
232.325	0.6937
232.706	0.6885
233.087	0.6869
233.467	0.6845
233.848	0.6839
234.229	0.6828
234.609	0.6794
234.99	0.6754
235.37	0.6704
235.751	0.6706
236.131	0.6634
236.511	0.6591
236.892	0.6566
237.272	0.6608
237.652	0.6583
238.033	0.6516
238.413	0.646
238.793	0.6447
239.173	0.6437
239.553	0.6385
239.933	0.6366
240.313	0.6325
240.694	0.6309
241.074	0.6284
241.453	0.6264
241.833	0.624
242.213	0.6198
242.593	0.617
242.973	0.6169
243.353	0.6124
243.732	0.612
244.112	0.6076
244.492	0.6055
244.872	0.6007
245.251	0.5993
245.631	0.5979
246.01	0.5957
246.39	0.5929
246.769	0.5909
247.149	0.5888
247.528	0.5862
247.908	0.5852
248.287	0.5844
248.666	0.5822
249.045	0.5789
249.425	0.5745
249.804	0.5706
250.183	0.5668
250.562	0.5654
250.941	0.5638
251.32	0.562
251.699	0.5596
252.078	0.5564
252.457	0.5563
252.836	0.5544
253.215	0.5539
253.594	0.5527
253.973	0.5512
254.352	0.549
254.731	0.5448
255.109	0.5443
255.488	0.5435
255.867	0.5422
256.245	0.538
256.624	0.5363
257.002	0.5353
257.381	0.5368
257.759	0.5357
258.138	0.5333
258.516	0.5288
258.895	0.5253
259.273	0.5234
259.651	0.5224
260.03	0.5213
260.408	0.5211
260.786	0.5178
261.164	0.5158
261.542	0.5124
261.921	0.5122
262.299	0.5092
262.677	0.5068
263.055	0.5044
263.433	0.5029
263.811	0.5004
264.188	0.4983
264.566	0.4975
264.944	0.4962
265.322	0.4933
265.7	0.4915
266.077	0.4901
266.455	0.491
266.833	0.492
267.21	0.4897
267.588	0.4862
267.966	0.4804
268.343	0.4782
268.721	0.4757
269.098	0.4748
269.475	0.4725
269.853	0.4689
270.23	0.4644
270.607	0.4613
270.985	0.4607
271.362	0.4596
271.739	0.4583
272.116	0.4556
272.494	0.4527
272.871	0.4494
273.248	0.4457
273.625	0.442
274.002	0.4387
274.379	0.4368
274.756	0.4365
275.132	0.4352
275.509	0.4343
275.886	0.4323
276.263	0.4296
276.64	0.4267
277.016	0.4226
277.393	0.4225
277.77	0.4202
278.146	0.4201
278.523	0.416
278.899	0.413
279.276	0.4078
279.652	0.4068
280.029	0.4055
280.405	0.4047
280.782	0.4019
281.158	0.3999
281.534	0.3979
281.91	0.3949
282.287	0.3916
282.663	0.3908
283.039	0.3883
283.415	0.3883
283.791	0.3859
284.167	0.3838
284.543	0.382
284.919	0.3783
285.295	0.3769
285.671	0.374
286.047	0.373
286.423	0.371
286.799	0.3693
287.174	0.3692
287.55	0.3681
287.926	0.3655
288.301	0.3611
288.677	0.3589
289.053	0.3572
289.428	0.3565
289.804	0.3552
290.179	0.3517
290.555	0.3496
290.93	0.3473
291.305	0.345
291.681	0.3411
292.056	0.3395
292.431	0.3394
292.806	0.3389
293.182	0.3362
293.557	0.3353
293.932	0.3343
294.307	0.3327
294.682	0.3292
295.057	0.3282
295.432	0.3259
295.807	0.3243
296.182	0.3213
296.557	0.3216
296.932	0.3213
297.306	0.3202
297.681	0.317
298.056	0.3141
298.43	0.3123
298.805	0.3114
299.18	0.3104
299.554	0.3081
299.929	0.3059
300.303	0.3051
300.678	0.304
301.052	0.3048
301.427	0.3029
301.801	0.3019
302.175	0.299
302.55	0.2971
302.924	0.2969
303.298	0.2956
303.672	0.2943
304.046	0.2909
304.421	0.2882
304.795	0.2854
305.169	0.2817
305.543	0.2794
305.917	0.2788
306.291	0.2803
306.664	0.2797
307.038	0.2772
307.412	0.2757
307.786	0.2738
308.16	0.2715
308.533	0.2704
308.907	0.2694
309.281	0.2717
309.654	0.2686
310.028	0.2676
310.401	0.2638
310.775	0.2631
311.148	0.2597
311.522	0.2589
311.895	0.2564
312.268	0.2574
312.642	0.2553
313.015	0.2557
313.388	0.254
313.761	0.2509
314.135	0.247
314.508	0.2451
314.881	0.2455
315.254	0.2457
315.627	0.2442
316	0.2426
316.373	0.2383
316.746	0.2372
317.118	0.2366
317.491	0.238
317.864	0.2364
318.237	0.2352
318.61	0.234
318.982	0.2327
319.355	0.2327
319.727	0.2317
320.1	0.2292
320.473	0.2255
320.845	0.2251
321.218	0.2245
321.59	0.2228
321.962	0.2201
322.335	0.2209
322.707	0.2202
323.079	0.2198
323.452	0.217
323.824	0.2161
324.196	0.2157
324.568	0.214
324.94	0.212
325.312	0.2106
325.684	0.2103
326.056	0.2084
326.428	0.2054
326.8	0.2033
327.172	0.2038
327.544	0.2034
327.915	0.2019
328.287	0.2013
328.659	0.2006
329.031	0.1998
329.402	0.1976
329.774	0.1954
330.145	0.1934
330.517	0.1936
330.888	0.191
331.26	0.1915
331.631	0.1882
332.003	0.1895
332.374	0.1868
332.745	0.1876
333.117	0.1831
333.488	0.1821
333.859	0.181
334.23	0.181
334.601	0.1813
334.972	0.1782
335.343	0.1787
335.714	0.1758
336.085	0.1774
336.456	0.1754
336.827	0.1743
337.198	0.172
337.569	0.1719
337.94	0.1718
338.31	0.1709
338.681	0.1687
339.052	0.1665
339.422	0.1632
339.793	0.1618
340.164	0.1592
340.534	0.1592
340.905	0.1593
341.275	0.1595
341.645	0.1592
342.016	0.1574
342.386	0.1561
342.756	0.1547
343.127	0.1536
343.497	0.1538
343.867	0.1532
344.237	0.1517
344.607	0.1509
344.977	0.1504
345.347	0.1527
345.717	0.1525
346.087	0.1509
346.457	0.1494
346.827	0.1469
347.197	0.1442
347.567	0.1411
347.936	0.1409
348.306	0.1421
348.676	0.1421
349.046	0.14
349.415	0.1392
349.785	0.1387
350.154	0.1382
350.524	0.1386
350.893	0.1369
351.263	0.1372
351.632	0.135
352.001	0.134
352.371	0.1333
352.74	0.1335
353.109	0.1332
353.478	0.1332
353.847	0.1317
354.217	0.1314
354.586	0.1291
354.955	0.1281
355.324	0.1261
355.693	0.1256
356.062	0.1258
356.43	0.1246
356.799	0.1214
357.168	0.1181
357.537	0.1178
357.906	0.1183
358.274	0.1191
358.643	0.118
359.011	0.1185
359.38	0.117
359.749	0.1174
360.117	0.1154
360.486	0.1143
360.854	0.1121
361.222	0.1115
361.591	0.1117
361.959	0.1106
362.327	0.1087
362.695	0.1065
363.064	0.1074
363.432	0.108
363.8	0.1093
364.168	0.1063
364.536	0.1058
364.904	0.1038
365.272	0.1054
365.64	0.1044
366.008	0.1029
366.376	0.0997
366.743	0.0997
367.111	0.0998
367.479	0.1026
367.847	0.1011
368.214	0.1013
368.582	0.0994
368.949	0.0984
369.317	0.0979
369.684	0.0954
370.052	0.0944
370.419	0.0938
370.787	0.0956
371.154	0.0961
371.521	0.0943
371.889	0.093
372.256	0.0928
372.623	0.0932
372.99	0.0927
373.357	0.0903
373.724	0.0891
374.091	0.0861
374.458	0.0877
374.825	0.0878
375.192	0.0894
375.559	0.0871
375.926	0.0862
376.293	0.0837
376.659	0.0828
377.026	0.0806
377.393	0.0828
377.759	0.082
378.126	0.0829
378.492	0.0805
378.859	0.0808
379.225	0.0796
379.592	0.0775
379.958	0.0771
380.325	0.0776
380.691	0.0786
381.057	0.0769
381.423	0.0758
381.79	0.074
382.156	0.0748
382.522	0.0741
382.888	0.0762
383.254	0.0744
383.62	0.0753
383.986	0.0733
384.352	0.0744
384.718	0.0729
385.084	0.0723
385.449	0.072
385.815	0.0703
386.181	0.0699
386.547	0.0673
386.912	0.0657
387.278	0.0639
387.643	0.0641
388.009	0.0661
388.374	0.0665
388.74	0.0672
389.105	0.0664
389.471	0.0667
389.836	0.0652
390.201	0.0653
390.566	0.0652
390.932	0.0654
391.297	0.0637
391.662	0.0618
392.027	0.0632
392.392	0.0619
392.757	0.0612
393.122	0.0579
393.487	0.0588
393.852	0.0591
394.217	0.0593
394.582	0.058
394.946	0.0575
395.311	0.0582
395.676	0.0584
396.04	0.0572
396.405	0.0559
396.77	0.0561
397.134	0.0553
397.499	0.053
397.863	0.0529
398.227	0.0545
398.592	0.0567
398.956	0.0567
399.32	0.0572
399.685	0.057
400.049	0.055
400.413	0.0543
400.777	0.0536
401.141	0.0523
401.505	0.0529
401.869	0.0493
402.233	0.0494
402.597	0.046
402.961	0.0486
403.325	0.0486
403.689	0.0487
404.053	0.0492
404.416	0.0486
404.78	0.05
405.144	0.0475
405.507	0.0458
405.871	0.0438
406.234	0.0448
406.598	0.0479
406.961	0.0506
407.325	0.0498
407.688	0.048
408.051	0.0463
408.415	0.0463
408.778	0.0467
409.141	0.0455
409.504	0.0451
409.867	0.0466
410.23	0.0445
410.593	0.0428
410.956	0.0399
411.319	0.0412
411.682	0.0422
412.045	0.0419
412.408	0.0433
412.771	0.0437
413.134	0.0435
413.496	0.0429
413.859	0.0402
414.222	0.0416
414.584	0.0392
414.947	0.0402
415.309	0.0367
415.672	0.038
416.034	0.0381
416.396	0.0381
416.759	0.0385
417.121	0.0397
417.483	0.0408
417.846	0.0401
418.208	0.0395
418.57	0.0382
418.932	0.037
419.294	0.0353
419.656	0.0359
420.018	0.0362
420.38	0.036
420.742	0.0351
421.104	0.0337
421.466	0.0359
421.827	0.0386
422.189	0.0402
422.551	0.0384
422.912	0.0365
423.274	0.0341
423.636	0.0314
423.997	0.0299
424.359	0.0325
424.72	0.034
425.081	0.0341
425.443	0.0325
425.804	0.034
426.165	0.0342
426.527	0.0348
426.888	0.034
427.249	0.0353
427.61	0.0347
427.971	0.033
428.332	0.0312
428.693	0.0308
429.054	0.0305
429.415	0.0298
429.776	0.0272
430.137	0.0276
430.498	0.0284
430.858	0.0299
431.219	0.031
431.58	0.0319
431.94	0.0335
432.301	0.0327
432.661	0.0308
433.022	0.0295
433.382	0.0279
433.743	0.028
434.103	0.029
434.463	0.0306
434.824	0.0307
435.184	0.0283
435.544	0.0277
435.904	0.0296
436.264	0.029
436.624	0.029
436.985	0.0271
437.345	0.0308
437.704	0.0301
438.064	0.0301
438.424	0.0267
438.784	0.0261
439.144	0.0249
439.504	0.025
439.863	0.0243
440.223	0.0255
440.583	0.0247
440.942	0.0239
441.302	0.024
441.661	0.0256
442.021	0.0275
442.38	0.0261
442.739	0.0249
443.099	0.0282
443.458	0.0302
443.817	0.0304
444.176	0.0275
444.536	0.0236
444.895	0.0224
445.254	0.0204
445.613	0.0231
445.972	0.0244
446.331	0.0238
446.69	0.0224
447.049	0.0207
447.407	0.0225
447.766	0.0251
448.125	0.0281
448.484	0.0252
448.842	0.0218
449.201	0.0188
449.559	0.0195
449.918	0.021
450.276	0.0213
450.635	0.0214
450.993	0.0192
451.352	0.0203
451.71	0.0218
452.068	0.023
452.426	0.0228
452.785	0.0199
453.143	0.0203
453.501	0.0177
453.859	0.0186
454.217	0.0175
454.575	0.0179
454.933	0.0179
455.291	0.019
455.649	0.0204
456.006	0.021
456.364	0.0195
456.722	0.0188
457.079	0.0208
457.437	0.0219
457.795	0.0226
458.152	0.0205
458.51	0.0202
458.867	0.0197
459.225	0.0195
459.582	0.0183
459.939	0.0184
460.297	0.0176
460.654	0.0159
461.011	0.0159
461.368	0.0176
461.725	0.0195
462.082	0.02
462.44	0.022
462.797	0.0225
463.153	0.0221
463.51	0.0189
463.867	0.0174
464.224	0.0159
464.581	0.0161
464.938	0.0151
465.294	0.0154
465.651	0.0158
466.008	0.0184
466.364	0.018
466.721	0.0169
467.077	0.0185
467.434	0.019
467.79	0.0188
468.146	0.0169
468.503	0.0174
468.859	0.0173
469.215	0.0177
469.571	0.0179
469.927	0.0199
470.284	0.0195
470.64	0.0176
470.996	0.0167
471.352	0.0141
471.707	0.0151
472.063	0.0145
472.419	0.0158
472.775	0.0163
473.131	0.016
473.486	0.0158
473.842	0.0166
474.198	0.0153
474.553	0.0161
474.909	0.0122
475.264	0.0136
475.62	0.0146
475.975	0.0179
476.331	0.0178
476.686	0.0157
477.041	0.0127
477.396	0.0141
477.752	0.0134
478.107	0.0159
478.462	0.0144
478.817	0.0161
479.172	0.0164
479.527	0.0168
479.882	0.0156
480.237	0.0158
480.591	0.0145
480.946	0.017
481.301	0.0165
481.656	0.0163
482.01	0.0145
482.365	0.0123
482.72	0.0142
483.074	0.0132
483.429	0.0129
483.783	0.0125
484.137	0.0119
484.492	0.0125
484.846	0.0111
485.2	0.0112
485.555	0.0118
485.909	0.0137
486.263	0.013
486.617	0.0127
486.971	0.0104
487.325	0.0133
487.679	0.0125
488.033	0.0131
488.387	0.0108
488.741	0.011
489.094	0.012
489.448	0.0147
489.802	0.0167
490.156	0.0136
490.509	0.0116
490.863	0.0103
491.216	0.0113
491.57	0.0103
491.923	0.0085
492.277	0.0093
492.63	0.0099
492.983	0.0124
493.337	0.013
493.69	0.0124
494.043	0.0105
494.396	0.0094
494.749	0.0094
495.102	0.013
495.455	0.0128
495.808	0.0108
496.161	0.0065
496.514	0.0069
496.867	0.0098
497.22	0.0105
497.572	0.0092
497.925	0.0082
498.278	0.0109
498.63	0.0112
498.983	0.0123
499.335	0.0113
499.688	0.0127
500.04	0.0139
500.393	0.0141
500.745	0.0122
501.097	0.0101
501.449	0.0086
501.802	0.0105
502.154	0.0107
502.506	0.0115
502.858	0.0088
503.21	0.0085
503.562	0.0101
503.914	0.0129
504.266	0.0132
504.618	0.0125
504.969	0.0123
505.321	0.0092
505.673	0.0058
506.025	0.0073
506.376	0.0104
506.728	0.0109
507.079	0.0093
507.431	0.0074
507.782	0.0075
508.134	0.0051
508.485	0.007
508.836	0.0074
509.188	0.0098
509.539	0.0089
509.89	0.009
510.241	0.0077
510.592	0.0104
510.943	0.0094
511.294	0.0112
511.645	0.0081
511.996	0.0094
512.347	0.0052
512.698	0.006
513.049	0.0028
513.399	0.0042
513.75	0.0035
514.101	0.0054
514.451	0.0064
514.802	0.0081
515.152	0.0121
515.503	0.0127
515.853	0.0112
516.203	0.0085
516.554	0.0072
516.904	0.0071
517.254	0.0069
517.604	0.0071
517.955	0.0063
518.305	0.0082
518.655	0.0087
519.005	0.0094
519.355	0.0064
519.705	0.0053
520.055	0.0068
520.404	0.0061
520.754	0.0074
521.104	0.0051
521.454	0.0079
521.803	0.0073
522.153	0.0072
522.502	0.0052
522.852	0.0038
523.201	0.0067
523.551	0.005
523.9	0.0073
524.249	0.0058
524.599	0.0055
524.948	0.0022
525.297	0.0007
525.646	0.0025
525.995	0.0054
526.344	0.0075
526.694	0.0091
527.042	0.0072
527.391	0.0052
527.74	0.0035
528.089	0.002
528.438	0.003
528.787	0.0039
529.135	0.0036
529.484	0.0026
529.833	0.0031
530.181	0.004
530.53	0.0039
530.878	0.0038
531.227	0.0055
531.575	0.0072
531.923	0.0081
532.271	0.0078
532.62	0.0056
532.968	0.0036
533.316	0.0049
533.664	0.0065
534.012	0.0047
534.36	0.0035
534.708	0.0005
535.056	0.0019
535.404	0.0054
535.752	0.0097
536.1	0.0085
536.447	0.0058
536.795	0.0035
537.143	0.0061
537.49	0.0078
537.838	0.0076
538.185	0.0063
538.533	0.0031
538.88	0.0038
539.228	0.0037
539.575	0.005
539.922	0.0055
540.269	0.0067
540.617	0.0067
540.964	0.0076
541.311	0.0065
541.658	0.007
542.005	0.007
542.352	0.0091
542.699	0.0094
543.045	0.0067
543.392	0.0053
543.739	0.0039
544.086	0.0029
544.432	0.0034
544.779	0.0047
545.126	0.0067
545.472	0.0079
545.819	0.0057
546.165	0.0069
546.512	0.0044
546.858	0.0066
547.204	0.0059
547.55	0.0057
547.897	0.0051
548.243	0.0038
548.589	0.0038
548.935	0.0024
549.281	0.0013
549.627	0.0007
549.973	0.0016
550.319	0.0035
550.665	0.0048
551.01	0.0032
551.356	0.0025
551.702	0.001
552.048	-0.0006
552.393	0.0013
552.739	-0.0001
553.084	0.0022
553.43	-0.0001
553.775	0.0037
554.12	0.0038
554.466	0.0059
554.811	0.0031
555.156	0.0026
555.502	-0.0005
555.847	0.0014
556.192	0.0042
556.537	0.0072
556.882	0.0049
557.227	0.0005
557.572	-0.002
557.917	0.0007
558.261	0.0033
558.606	0.0038
558.951	0.0014
559.295	0.002
559.64	0.0029
559.985	0.003
560.329	0.0025
560.674	0.0069
561.018	0.0072
561.363	0.006
561.707	0.0013
562.051	0.0017
562.395	0.0009
562.74	0.0049
563.084	0.0035
563.428	0.0037
563.772	0.0007
564.116	0.0018
564.46	0.0049
564.804	0.0052
565.148	0.0046
565.492	0.0032
565.835	0.0055
566.179	0.0086
566.523	0.0048
566.866	-0.0011
567.21	-0.0051
567.554	-0.0048
567.897	0.0006
568.24	-0.0023
568.584	-0.002
568.927	-0.0048
569.271	-0.0009
569.614	-0.0015
569.957	0.0005
570.3	0.0002
570.643	0.0013
570.986	0.001
571.329	0.002
571.672	0.0029
572.015	0.0005
572.358	0.0012
572.701	-0.0013
573.044	0.0002
573.387	0.0017
573.729	0.0044
574.072	0.0044
574.414	0.0013
574.757	0.0014
575.099	-0.0006
575.442	0
575.784	-0.0003
576.127	0.0019
576.469	0.0025
576.811	0.0025
577.153	0.0014
577.496	0.002
577.838	0.0015
578.18	0.0023
578.522	0
578.864	-0.002
579.206	-0.0026
579.548	-0.002
579.889	-0.0014
580.231	0.0007
580.573	0.0034
580.915	0.0025
581.256	-0.0004
581.598	-0.0036
581.939	-0.0043
582.281	-0.0019
582.622	-0.0019
582.964	0.0006
583.305	-0.0015
583.646	-0.0015
583.988	-0.0018
584.329	-0.0022
584.67	-0.002
585.011	-0.0026
585.352	-0.0003
585.693	0.0027
586.034	0.0021
586.375	-0.0005
586.716	-0.0017
587.057	0.003
587.398	0.0075
587.738	0.0067
588.079	0.0025
588.42	-0.0009
588.76	-0.0022
589.101	-0.001
589.441	0.0021
589.782	0.0002
590.122	0.0006
590.463	-0.0005
590.803	0.0005
591.143	-0.002
591.483	-0.0024
591.823	-0.002
592.164	-0.0004
592.504	-0.0008
592.844	-0.0014
593.184	-0.0009
593.523	-0.002
593.863	-0.0021
594.203	-0.002
594.543	-0.0024
594.883	-0.0028
595.222	-0.0014
595.562	0.0015
595.901	0.0013
596.241	-0.001
596.58	-0.002
596.92	-0.0011
597.259	-0.0008
597.599	-0.0026
597.938	-0.0019
598.277	-0.0014
598.616	-0.0011
598.955	-0.0039
599.295	-0.0027
599.634	-0.0001
599.973	0
600.312	0.0014
600.65	-0.0017
600.989	0.0024
601.328	0.0014
601.667	0.0026
602.005	-0.0034
602.344	-0.0053
602.683	-0.0049
603.021	-0.0032
603.36	-0.0012
603.698	-0.0012
604.037	0
604.375	0.0013
604.713	0.0004
605.052	0.0011
605.39	-0.0004
605.728	-0.0008
606.066	0.0002
606.404	-0.001
606.742	-0.0008
607.08	-0.0004
607.418	-0.0021
607.756	-0.0035
608.094	-0.003
608.431	-0.003
608.769	0.0004
609.107	-0.0007
609.444	0.0014
609.782	-0.0011
610.12	0.0004
610.457	-0.0017
610.794	-0.0002
611.132	-0.0033
611.469	-0.0037
611.806	-0.0049
612.144	-0.0044
612.481	-0.0002
612.818	-0.0011
613.155	-0.0009
613.492	-0.0021
613.829	0.0017
614.166	0.0034
614.503	0.0037
614.84	-0.0001
615.176	0
615.513	-0.001
615.85	0.0014
616.187	0
616.523	-0.0019
616.86	-0.006
617.196	-0.0054
617.533	-0.0009
617.869	0.0008
618.205	-0.0021
618.542	-0.0032
618.878	-0.004
619.214	0.0008
619.55	-0.0021
619.886	0.0004
620.222	-0.0016
620.558	-0.0012
620.894	-0.0042
621.23	-0.003
621.566	-0.0018
621.902	-0.0017
622.238	-0.0032
622.573	-0.0053
622.909	-0.0045
623.244	-0.0053
623.58	-0.0034
623.916	-0.0042
624.251	-0.0019
624.586	-0.0041
624.922	-0.0012
625.257	-0.0032
625.592	-0.0001
625.927	-0.0025
626.263	-0.0021
626.598	-0.0042
626.933	-0.0026
627.268	-0.001
627.603	-0.0003
627.938	-0.0038
628.272	-0.0037
628.607	-0.0064
628.942	-0.0026
629.277	-0.006
629.611	-0.0085
629.946	-0.0079
630.281	-0.0029
630.615	0.0003
630.949	-0.0017
631.284	-0.0028
631.618	-0.0013
631.953	-0.0036
632.287	-0.0064
632.621	-0.0092
632.955	-0.0077
633.289	-0.0071
633.623	-0.0055
633.957	0.001
634.291	0.0005
634.625	0.0035
634.959	-0.0025
635.293	-0.0051
635.627	-0.0095
635.96	-0.0052
636.294	-0.0034
636.627	-0.0034
636.961	-0.0072
637.294	-0.0053
637.628	-0.0048
637.961	-0.0069
638.295	-0.0088
638.628	-0.0068
638.961	-0.0059
639.294	-0.0062
639.628	-0.0081
639.961	-0.0078
640.294	-0.0069
640.627	-0.0063
640.96	-0.002
641.293	-0.0038
641.625	-0.0025
641.958	-0.0044
642.291	-0.0042
642.624	-0.0042
642.956	-0.0042
643.289	0.0003
643.621	-0.0005
643.954	-0.0053
644.286	-0.0059
644.619	-0.0057
644.951	-0.0026
645.283	-0.0046
645.616	-0.0057
645.948	-0.0063
646.28	-0.0068
646.612	-0.0077
646.944	-0.0084
647.276	-0.0138
647.608	-0.0151
647.94	-0.0125
648.272	-0.0059
648.603	-0.0031
648.935	-0.0092
649.267	-0.0064
649.598	-0.0061
649.93	-0.0006
650.261	0.0027
650.593	0.0002
650.924	0.0036
651.256	-0.0021
651.587	-0.0012
651.918	-0.0054
652.25	-0.0076
652.581	-0.0066
652.912	-0.0073
653.243	-0.0058
653.574	-0.0041
653.905	-0.0041
654.236	-0.0032
654.567	-0.0061
654.897	-0.0082
655.228	-0.011
655.559	-0.0102
655.89	-0.0074
656.22	-0.0039
656.551	-0.0082
656.881	-0.0061
657.212	-0.0075
657.542	-0.0027
657.872	-0.0018
658.203	-0.0041
658.533	0.0041
658.863	0.0031
659.193	-0.001
659.523	-0.0031
659.853	-0.0079
660.183	-0.0021
660.513	-0.0057
660.843	-0.0025
661.173	-0.0044
661.503	-0.0028
661.833	-0.0089
662.162	-0.0089
662.492	-0.0059
662.822	-0.0069
663.151	-0.0068
663.481	-0.0096
663.81	-0.0108
664.139	-0.0134
664.469	-0.0063
664.798	-0.0012
665.127	-0.0017
665.456	-0.0044
665.785	-0.007
666.114	-0.0023
666.443	-0.0051
666.772	-0.0073
667.101	-0.0091
667.43	-0.0131
667.759	-0.0078
668.088	-0.0102
668.416	-0.0111
668.745	-0.0138
669.074	-0.0094
669.402	-0.0073
669.731	-0.005
670.059	-0.0083
670.388	-0.0039
670.716	-0.0028
671.044	-0.0027
671.372	-0.0067
671.701	-0.0044
672.029	-0.0021
672.357	-0.001
672.685	-0.0005
673.013	0.0024
673.341	0.0008
673.669	-0.0041
673.996	-0.0078
674.324	-0.0039
674.652	-0.0016
674.98	-0.0023
675.307	-0.004
675.635	-0.0024
675.962	-0.0032
676.29	-0.0035
676.617	-0.0091
676.945	-0.0071
677.272	-0.0087
677.599	-0.0065
677.926	-0.008
678.253	-0.0101
678.581	-0.0089
678.908	-0.007
679.235	-0.0051
679.561	-0.0078
679.888	-0.012
680.215	-0.0089
680.542	-0.01
680.869	-0.0042
681.195	-0.0049
681.522	-0.0029
681.849	-0.0055
682.175	-0.007
682.502	-0.0039
682.828	-0.0044
683.154	0
683.481	-0.0055
683.807	-0.0037
684.133	-0.0097
684.459	-0.0144
684.785	-0.0141
685.111	-0.0112
685.437	-0.0063
685.763	-0.0049
686.089	-0.0076
686.415	-0.005
686.741	-0.0056
687.067	-0.0049
687.392	-0.0038
687.718	-0.006
688.043	-0.0038
688.369	-0.0013
688.694	0.0005
689.02	0.0014
689.345	-0.008
689.67	-0.0074
689.996	-0.0095
690.321	-0.0046
690.646	-0.0063
690.971	-0.0069
691.296	-0.0067
691.621	-0.0079
691.946	-0.0112
692.271	-0.0159
692.596	-0.0151
692.921	-0.0108
693.245	-0.0003
693.57	-0.0023
693.895	-0.0032
694.219	-0.0119
694.544	-0.0079
694.868	-0.0081
695.193	-0.0057
695.517	-0.0088
695.841	-0.0104
696.166	-0.0076
696.49	-0.0055
696.814	-0.0008
697.138	-0.0048
697.462	-0.001
697.786	-0.0044
698.11	-0.0011
698.434	-0.0071
698.758	-0.0083
699.081	-0.0113
699.405	-0.0073
699.729	-0.0054
700.052	-0.0041
700.376	-0.0113
700.7	-0.0112
701.023	-0.0118
701.346	-0.0065
701.67	-0.0077
701.993	-0.0071
702.316	-0.0078
702.639	-0.0058
702.963	-0.0108
703.286	-0.0123
703.609	-0.0084
703.932	-0.0015
704.255	0.0019
704.578	-0.0022
704.9	-0.0041
705.223	-0.0043
705.546	-0.005
705.868	-0.0045
706.191	-0.0064
706.514	-0.0099
706.836	-0.0127
707.159	-0.011
707.481	-0.0085
707.803	-0.0068
708.126	-0.0058
708.448	-0.002
708.77	0.0004
709.092	-0.0019
709.414	-0.0017
709.736	-0.0028
710.058	-0.0037
710.38	-0.0039
710.702	-0.0107
711.024	-0.0094
711.345	-0.0115
711.667	-0.0051
711.989	-0.0091
712.31	-0.0067
712.632	-0.0108
712.953	-0.0108
713.275	-0.0137
713.596	-0.0109
713.917	-0.0073
714.239	-0.0084
714.56	-0.0076
714.881	-0.009
715.202	-0.008
715.523	-0.0063
715.844	-0.0041
716.165	-0.0072
716.486	-0.0053
716.807	-0.0077
717.128	-0.0036
717.448	-0.0084
717.769	-0.01
718.09	-0.0109
718.41	-0.01
718.731	-0.0071
719.051	-0.0078
719.372	-0.0041
719.692	-0.0054
720.012	-0.0021
720.332	-0.0084
720.653	-0.0052
720.973	-0.0094
721.293	-0.0083
721.613	-0.0086
721.933	-0.008
722.253	-0.0052
722.573	-0.01
722.892	-0.0131
723.212	-0.013
723.532	-0.0093
723.851	-0.0102
724.171	-0.0114
724.491	-0.0157
724.81	-0.0102
725.129	-0.0079
725.449	-0.0074
725.768	-0.0053
726.087	-0.0062
726.407	-0.0053
726.726	-0.0108
727.045	-0.0138
727.364	-0.0121
727.683	-0.0066
728.002	-0.0055
728.321	-0.0032
728.64	-0.0071
728.958	-0.0087
729.277	-0.0106
729.596	-0.0105
729.914	-0.0116
730.233	-0.0089
730.551	-0.0075
730.87	-0.0081
731.188	-0.0099
731.507	-0.0082
731.825	-0.0065
732.143	-0.006
732.461	-0.0053
732.779	-0.0059
733.097	-0.0083
733.415	-0.0087
733.733	-0.0084
734.051	-0.0094
734.369	-0.0091
734.687	-0.0088
735.005	-0.0056
735.322	-0.0071
735.64	-0.0053
735.957	-0.0036
736.275	-0.0032
736.592	-0.0034
736.91	-0.0081
737.227	-0.0088
737.544	-0.0068
737.862	-0.0006
738.179	-0.0031
738.496	-0.0029
738.813	-0.0085
739.13	-0.0053
739.447	-0.0073
739.764	-0.0062
740.081	-0.0092
740.398	-0.0095
740.714	-0.0095
741.031	-0.0087
741.348	-0.0056
741.664	-0.0027
741.981	-0.0031
742.297	-0.0049
742.614	-0.0065
742.93	-0.0054
743.246	-0.013
743.563	-0.0222
743.879	-0.0264
744.195	-0.0186
744.511	-0.0135
744.827	-0.0117
745.143	-0.0106
745.459	-0.0074
745.775	-0.0051
746.091	-0.0128
746.406	-0.0163
746.722	-0.0167
747.038	-0.0073
747.353	-0.0014
747.669	-0.0097
747.984	-0.0138
748.3	-0.0144
748.615	-0.0086
748.93	-0.0047
749.246	-0.0082
749.561	-0.0072
749.876	-0.0162
750.191	-0.0151
750.506	-0.0162
750.821	-0.0119
751.136	-0.0104
751.451	-0.0069
751.766	-0.0028
752.08	-0.0065
752.395	-0.0032
752.71	-0.006
753.024	-0.0035
753.339	-0.0064
753.653	-0.0068
753.968	-0.0054
754.282	-0.0108
754.596	-0.0101
754.911	-0.0105
755.225	-0.0023
755.539	-0.0028
755.853	-0.0056
756.167	-0.008
756.481	-0.0083
756.795	-0.0092
757.109	-0.0098
757.423	-0.0077
757.736	-0.0074
758.05	-0.0067
758.364	-0.007
758.677	-0.0061
758.991	-0.0077
759.304	-0.0112
759.618	-0.0094
759.931	-0.0118
760.244	-0.0083
760.558	-0.0091
760.871	-0.0067
761.184	-0.0098
761.497	-0.0123
761.81	-0.0173
762.123	-0.0181
762.436	-0.0102
762.749	-0.007
763.062	-0.0057
763.374	-0.0108
763.687	-0.0129
764	-0.0118
764.312	-0.013
764.625	-0.0126
764.937	-0.0123
765.25	-0.0121
765.562	-0.0098
765.874	-0.01
766.186	-0.0103
766.499	-0.0073
766.811	-0.0027
767.123	-0.0003
767.435	-0.0019
767.747	-0.0043
768.059	-0.0063
768.37	-0.0042
768.682	-0.0077
768.994	-0.0102
769.306	-0.0162
769.617	-0.0171
769.929	-0.0127
770.24	-0.011
770.552	-0.0068
770.863	-0.0073
771.174	-0.011
771.486	-0.0125
771.797	-0.0137
772.108	-0.0077
772.419	-0.0034
772.73	-0.0007
773.041	-0.0078
773.352	-0.0108
773.663	-0.0122
773.974	-0.01
774.285	-0.0165
774.595	-0.0177
774.906	-0.0179
775.217	-0.0123
775.527	-0.0105
775.838	-0.0099
776.148	-0.0118
776.458	-0.0057
776.769	-0.0083
777.079	-0.0086
777.389	-0.0139
777.699	-0.0065
778.009	-0.0029
778.319	0.0013
778.629	0.0001
778.939	-0.002
779.249	-0.0035
779.559	-0.0069
779.869	-0.0089
780.178	-0.0164
780.488	-0.0176
780.798	-0.0183
781.107	-0.0147
781.417	-0.0094
781.726	-0.0043
782.035	-0.0054
782.345	-0.0053
782.654	-0.0043
782.963	-0.0064
783.272	-0.0077
783.581	-0.013
783.89	-0.0141
784.199	-0.0168
784.508	-0.0094
784.817	-0.0044
785.126	-0.0039
785.434	-0.0054
785.743	-0.0084
786.052	-0.0044
786.36	-0.0045
786.669	0.0004
786.977	0.0017
787.285	-0.0007
787.594	-0.0075
787.902	-0.0141
788.21	-0.0142
788.518	-0.0083
788.826	-0.0017
789.135	-0.0003
789.442	-0.0011
789.75	-0.0042
790.058	-0.006
790.366	-0.0115
790.674	-0.0088
790.981	-0.0084
791.289	-0.0043
791.597	-0.0061
791.904	-0.0092
792.212	-0.0074
792.519	-0.0108
792.826	-0.008
793.134	-0.0072
793.441	-0.0035
793.748	-0.0089
794.055	-0.0122
794.362	-0.0136
794.669	-0.0119
794.976	-0.0133
795.283	-0.011
795.59	-0.004
795.897	0.0003
796.203	0.0019
796.51	0.0028
796.817	-0.0032
797.123	-0.0061
797.43	-0.0098
797.736	-0.0085
798.042	-0.007
798.349	-0.0079
798.655	-0.0041
798.961	-0.0091
799.267	-0.0073
799.573	-0.0122
799.879	-0.003
800.185	-0.0023
800.491	0.0017
800.797	-0.0082
801.103	-0.0051
801.408	-0.0107
801.714	-0.0091
802.02	-0.016
802.325	-0.011
802.631	-0.0064
802.936	-0.0137
803.242	-0.0202
803.547	-0.0226
803.852	-0.0122
804.157	-0.0127
804.462	-0.0093
804.768	-0.0097
805.073	-0.0026
805.378	-0.0096
805.682	-0.0106
805.987	-0.018
806.292	-0.0172
806.597	-0.0152
806.902	-0.0074
807.206	-0.0076
807.511	-0.0093
807.815	-0.0118
808.12	-0.006
808.424	-0.0071
808.728	-0.0079
809.033	-0.0075
809.337	-0.0065
809.641	-0.0131
809.945	-0.0232
810.249	-0.0268
810.553	-0.0145
810.857	-0.0026
811.161	-0.0035
811.465	-0.0057
811.768	-0.0154
812.072	-0.0125
812.376	-0.0195
812.679	-0.0078
812.983	-0.0072
813.286	-0.0087
813.59	-0.0197
813.893	-0.0228
814.196	-0.0175
814.499	-0.02
814.803	-0.0183
815.106	-0.0149
815.409	-0.002
815.712	-0.0005
816.015	0.0003
816.318	-0.0036
816.62	-0.0029
816.923	-0.0087
817.226	-0.0079
817.528	-0.0067
817.831	-0.0099
818.133	-0.0169
818.436	-0.0216
818.738	-0.018
819.041	-0.0134
819.343	-0.0065
819.645	-0.0043
819.947	0.002
820.249	-0.0038
820.551	-0.0035
820.853	-0.0098
821.155	-0.0142
821.457	-0.0121
821.759	-0.0085
822.061	-0.0038
822.362	-0.0082
822.664	-0.009
822.966	-0.0095
823.267	-0.007
823.569	-0.0157
823.87	-0.0124
824.171	-0.0179
824.473	-0.0099
824.774	-0.0201
825.075	-0.0109
825.376	-0.0168
825.677	-0.0084
825.978	-0.0088
826.279	-0.0042
826.58	-0.0066
826.881	-0.0203
827.181	-0.0268
827.482	-0.0196
827.783	-0.0128
828.083	-0.0139
828.384	-0.0217
828.684	-0.0148
828.985	-0.0126
829.285	-0.0116
829.585	-0.0156
829.885	-0.0022
830.185	0.0015
830.486	0.0056
830.786	0.0019
831.086	0.0003
831.385	-0.0042
831.685	-0.0105
831.985	-0.0101
832.285	-0.0062
832.585	-0.0081
832.884	-0.0121
833.184	-0.0138
833.483	-0.0125
833.783	-0.0072
834.082	-0.0149
834.381	-0.0125
834.681	-0.0062
834.98	0.0009
835.279	0.0001
835.578	-0.0159
835.877	-0.0154
836.176	-0.0209
836.475	-0.0105
836.774	-0.0206
837.072	-0.019
837.371	-0.0255
837.67	-0.0238
837.968	-0.0138
838.267	-0.0111
838.565	-0.0023
838.864	-0.0073
839.162	-0.0092
839.46	-0.0069
839.759	-0.008
840.057	-0.0149
840.355	-0.0162
840.653	-0.01
840.951	-0.0025
841.249	0.002
841.547	-0.0094
841.845	-0.0027
842.142	-0.0222
842.44	-0.0151
842.738	-0.0295
843.035	-0.0167
843.333	-0.0194
843.63	-0.0139
843.928	-0.0165
844.225	-0.0121
844.522	-0.0136
844.82	-0.0134
845.117	-0.0148
845.414	-0.0057
845.711	-0.0121
846.008	-0.0198
846.305	-0.0266
846.602	-0.0218
846.898	-0.0133
847.195	-0.015
847.492	-0.0162
847.788	-0.0167
848.085	-0.0158
848.382	-0.0166
848.678	-0.0176
848.974	-0.004
849.271	0.0073
849.567	-0.0086
849.863	-0.0114
850.159	-0.0083
850.455	-0.0018
850.751	-0.0035
851.047	-0.0126
851.343	-0.0052
851.639	-0.0177
851.935	-0.0213
852.23	-0.0293
852.526	-0.0158
852.822	-0.0127
853.117	-0.0061
853.413	-0.0074
853.708	-0.0213
854.003	-0.016
854.299	-0.0053
854.594	-0.0004
854.889	-0.0105
855.184	-0.027
855.479	-0.0197
855.774	-0.0228
856.069	-0.0116
856.364	-0.0221
856.659	-0.0094
856.954	-0.026
857.248	0.0004
857.543	-0.0081
857.837	0.0143
858.132	0.0051
858.426	0.0216
858.721	0.025
859.015	0.0261
859.309	0.0291
859.604	0.0062
859.898	0.0186
860.192	0.0119
860.486	0.0132
860.78	-0.0025
861.074	-0.0217
861.367	-0.0252
861.661	-0.0254
861.955	-0.0116
862.248	0.0113
862.542	0.0169
862.836	0.0193
863.129	0.0075
863.422	0.0133
863.716	0.012
864.009	0.0055
864.302	-0.0028
864.595	0.0003
864.889	0.0012
865.182	0.0012
865.475	-0.0226
865.767	-0.0261
866.06	-0.0295
866.353	-0.0104
866.646	-0.0214
866.938	-0.0098
867.231	-0.0043
867.524	-0.0024
867.816	-0.025
868.109	-0.0455
868.401	-0.0295
868.693	-0.0042
868.985	0.0075
869.278	0.0003
869.57	-0.0018
869.862	0.0028
870.154	0.004
870.446	0.004
870.738	-0.0031
871.029	-0.0034
871.321	-0.0125
871.613	-0.0056
871.904	0.01
872.196	0.0028
872.487	-0.0081
872.779	-0.0137
873.07	-0.0058
873.362	-0.0053
873.653	-0.0211
873.944	-0.0121
874.235	-0.0065
874.526	0.01
874.817	0.0397
875.108	0.0456
875.399	0.0302
875.69	-0.0164
875.981	-0.0385
876.271	-0.0099
876.562	-0.0162
876.853	-0.0006
877.143	-0.0491
877.434	-0.0617
877.724	-0.0683
878.014	-0.0366
878.305	-0.0112
878.595	-0.0262
878.885	-0.0122
879.175	-0.0178
879.465	0.0145
879.755	0.0063
880.045	0.0131
880.335	-0.0074
880.624	-0.0125
880.914	-0.0125
