Data from 71SS05LU_080517_1b_Absorbance_16-11-45-048.txt Node
Date: Sun Aug 06 16:11:45 MDT 2017
User: Tank Lab
Spectrometer: FLMS01220
Trigger mode: 0
Integration Time (sec): 1.000000E-1
Scans to average: 10
Electric dark correction enabled: true
Nonlinearity correction enabled: false
Boxcar width: 1
XAxis mode: Wavelengths
Number of Pixels in Spectrum: 2048
>>>>>Begin Spectral Data<<<<<
179.47	-0.1362
179.856	-0.1362
180.241	-0.051
180.626	0.1058
181.011	0.8134
181.396	0.1496
181.781	-0.2253
182.166	0.217
182.551	0.0709
182.936	0.4368
183.321	0.8743
183.706	-0.7842
184.091	-0.0824
184.476	-0
184.86	0.1068
185.245	-0.6151
185.63	-0
186.015	0.2976
186.399	0.0052
186.784	-0.1614
187.169	0.0639
187.553	-0.2085
187.938	-1.3875
188.322	0.167
188.707	0.1175
189.091	0.0921
189.475	0.1469
189.86	0.1587
190.244	0.1947
190.629	0.2068
191.013	0.2407
191.397	0.3153
191.781	0.3616
192.165	0.4057
192.55	0.45
192.934	0.4976
193.318	0.5368
193.702	0.5405
194.086	0.5532
194.47	0.5475
194.854	0.5708
195.238	0.5699
195.622	0.5947
196.006	0.5977
196.389	0.6148
196.773	0.6154
197.157	0.6111
197.541	0.6126
197.924	0.6174
198.308	0.6352
198.692	0.6381
199.075	0.6405
199.459	0.6368
199.843	0.6345
200.226	0.6261
200.61	0.6281
200.993	0.6325
201.376	0.6399
201.76	0.6351
202.143	0.6321
202.527	0.6285
202.91	0.6319
203.293	0.6301
203.676	0.642
204.059	0.6425
204.443	0.6427
204.826	0.635
205.209	0.6354
205.592	0.6372
205.975	0.6421
206.358	0.6458
206.741	0.6422
207.124	0.6359
207.507	0.627
207.89	0.6309
208.273	0.6287
208.655	0.6377
209.038	0.6329
209.421	0.6331
209.804	0.6191
210.186	0.6154
210.569	0.6101
210.951	0.6138
211.334	0.6138
211.717	0.61
212.099	0.602
212.482	0.599
212.864	0.5978
213.246	0.599
213.629	0.5921
214.011	0.5884
214.393	0.5816
214.776	0.5806
215.158	0.5791
215.54	0.5761
215.922	0.5716
216.305	0.5645
216.687	0.5603
217.069	0.5513
217.451	0.5493
217.833	0.5446
218.215	0.5421
218.597	0.5354
218.979	0.5292
219.361	0.5195
219.742	0.5136
220.124	0.5086
220.506	0.5063
220.888	0.5021
221.27	0.4943
221.651	0.4892
222.033	0.4822
222.415	0.4767
222.796	0.4714
223.178	0.4639
223.559	0.4596
223.941	0.4536
224.322	0.4529
224.704	0.4485
225.085	0.4439
225.466	0.4345
225.848	0.43
226.229	0.425
226.61	0.4208
226.992	0.4133
227.373	0.4084
227.754	0.4063
228.135	0.4054
228.516	0.4025
228.897	0.3981
229.278	0.3917
229.659	0.3888
230.04	0.3863
230.421	0.3825
230.802	0.3774
231.183	0.3731
231.564	0.3709
231.944	0.3688
232.325	0.3646
232.706	0.361
233.087	0.3557
233.467	0.3522
233.848	0.3497
234.229	0.3483
234.609	0.3454
234.99	0.3435
235.37	0.3411
235.751	0.3403
236.131	0.3365
236.511	0.3333
236.892	0.3306
237.272	0.3289
237.652	0.3245
238.033	0.3207
238.413	0.3181
238.793	0.3188
239.173	0.3184
239.553	0.3174
239.933	0.3147
240.313	0.3126
240.694	0.3098
241.074	0.3094
241.453	0.3076
241.833	0.3056
242.213	0.3022
242.593	0.301
242.973	0.2997
243.353	0.2985
243.732	0.2968
244.112	0.295
244.492	0.2941
244.872	0.2921
245.251	0.2923
245.631	0.2903
246.01	0.2894
246.39	0.2871
246.769	0.2868
247.149	0.2848
247.528	0.2824
247.908	0.2822
248.287	0.2815
248.666	0.2817
249.045	0.2796
249.425	0.2788
249.804	0.2766
250.183	0.275
250.562	0.2741
250.941	0.2743
251.32	0.2725
251.699	0.2717
252.078	0.2699
252.457	0.2688
252.836	0.2671
253.215	0.2667
253.594	0.2658
253.973	0.2638
254.352	0.2618
254.731	0.2617
255.109	0.2619
255.488	0.2624
255.867	0.2628
256.245	0.2614
256.624	0.2593
257.002	0.2582
257.381	0.257
257.759	0.2569
258.138	0.2548
258.516	0.2531
258.895	0.2521
259.273	0.2523
259.651	0.2526
260.03	0.2515
260.408	0.2487
260.786	0.2488
261.164	0.2491
261.542	0.2477
261.921	0.2462
262.299	0.2437
262.677	0.244
263.055	0.2414
263.433	0.2402
263.811	0.2388
264.188	0.2396
264.566	0.2389
264.944	0.2371
265.322	0.234
265.7	0.232
266.077	0.2318
266.455	0.2344
266.833	0.2366
267.21	0.2351
267.588	0.2317
267.966	0.228
268.343	0.2265
268.721	0.2245
269.098	0.2226
269.475	0.2233
269.853	0.2246
270.23	0.2248
270.607	0.2223
270.985	0.2199
271.362	0.2177
271.739	0.2163
272.116	0.2154
272.494	0.2153
272.871	0.2145
273.248	0.2121
273.625	0.2105
274.002	0.2095
274.379	0.2084
274.756	0.2074
275.132	0.2061
275.509	0.2055
275.886	0.2049
276.263	0.2052
276.64	0.2026
277.016	0.2005
277.393	0.1985
277.77	0.1992
278.146	0.2003
278.523	0.1985
278.899	0.1965
279.276	0.1945
279.652	0.1947
280.029	0.1939
280.405	0.1926
280.782	0.1885
281.158	0.1884
281.534	0.1871
281.91	0.188
282.287	0.1856
282.663	0.1844
283.039	0.1837
283.415	0.1838
283.791	0.1832
284.167	0.1813
284.543	0.1796
284.919	0.1774
285.295	0.1761
285.671	0.1749
286.047	0.1756
286.423	0.1755
286.799	0.1747
287.174	0.173
287.55	0.1732
287.926	0.1726
288.301	0.1717
288.677	0.1696
289.053	0.1693
289.428	0.1676
289.804	0.1673
290.179	0.1657
290.555	0.1672
290.93	0.1664
291.305	0.1654
291.681	0.163
292.056	0.1627
292.431	0.1632
292.806	0.1625
293.182	0.1595
293.557	0.1572
293.932	0.1557
294.307	0.1579
294.682	0.1563
295.057	0.1555
295.432	0.1517
295.807	0.1517
296.182	0.1512
296.557	0.1513
296.932	0.1493
297.306	0.1491
297.681	0.1485
298.056	0.1492
298.43	0.1486
298.805	0.1475
299.18	0.1466
299.554	0.1448
299.929	0.1435
300.303	0.1429
300.678	0.1415
301.052	0.1424
301.427	0.1414
301.801	0.1421
302.175	0.1392
302.55	0.1382
302.924	0.1362
303.298	0.1351
303.672	0.1352
304.046	0.1355
304.421	0.1349
304.795	0.1327
305.169	0.1313
305.543	0.1328
305.917	0.1333
306.291	0.1336
306.664	0.1316
307.038	0.1291
307.412	0.1271
307.786	0.1279
308.16	0.1275
308.533	0.1271
308.907	0.1265
309.281	0.127
309.654	0.1273
310.028	0.1262
310.401	0.1246
310.775	0.1242
311.148	0.1218
311.522	0.121
311.895	0.119
312.268	0.1184
312.642	0.1175
313.015	0.1175
313.388	0.1181
313.761	0.1158
314.135	0.1148
314.508	0.114
314.881	0.1157
315.254	0.1138
315.627	0.1129
316	0.1125
316.373	0.1124
316.746	0.1116
317.118	0.1107
317.491	0.1109
317.864	0.1103
318.237	0.1096
318.61	0.1101
318.982	0.1097
319.355	0.1107
319.727	0.1089
320.1	0.1076
320.473	0.1052
320.845	0.1041
321.218	0.1045
321.59	0.1046
321.962	0.103
322.335	0.1032
322.707	0.1008
323.079	0.1019
323.452	0.1001
323.824	0.1004
324.196	0.1011
324.568	0.1005
324.94	0.101
325.312	0.0995
325.684	0.1002
326.056	0.0969
326.428	0.0959
326.8	0.0948
327.172	0.0954
327.544	0.0939
327.915	0.0933
328.287	0.0942
328.659	0.0933
329.031	0.0922
329.402	0.0911
329.774	0.0896
330.145	0.0888
330.517	0.0861
330.888	0.0863
331.26	0.0864
331.631	0.0873
332.003	0.0879
332.374	0.0861
332.745	0.0861
333.117	0.0839
333.488	0.0834
333.859	0.0832
334.23	0.0834
334.601	0.085
334.972	0.0824
335.343	0.0818
335.714	0.0794
336.085	0.0813
336.456	0.0808
336.827	0.0805
337.198	0.0784
337.569	0.0786
337.94	0.0774
338.31	0.0774
338.681	0.0763
339.052	0.0755
339.422	0.0737
339.793	0.0726
340.164	0.0714
340.534	0.0722
340.905	0.072
341.275	0.0719
341.645	0.071
342.016	0.0714
342.386	0.0721
342.756	0.0714
343.127	0.0709
343.497	0.0697
343.867	0.0689
344.237	0.068
344.607	0.0678
344.977	0.0678
345.347	0.0677
345.717	0.0671
346.087	0.0664
346.457	0.0664
346.827	0.0667
347.197	0.0656
347.567	0.0637
347.936	0.0623
348.306	0.0644
348.676	0.0646
349.046	0.0661
349.415	0.0652
349.785	0.0651
350.154	0.063
350.524	0.0622
350.893	0.0626
351.263	0.0639
351.632	0.0653
352.001	0.0634
352.371	0.0625
352.74	0.0602
353.109	0.0609
353.478	0.0614
353.847	0.0599
354.217	0.061
354.586	0.0586
354.955	0.0583
355.324	0.0547
355.693	0.0552
356.062	0.0566
356.43	0.0577
356.799	0.0559
357.168	0.0531
357.537	0.0526
357.906	0.0531
358.274	0.0543
358.643	0.055
359.011	0.0547
359.38	0.0554
359.749	0.0547
360.117	0.0533
360.486	0.0517
360.854	0.0489
361.222	0.0494
361.591	0.0489
361.959	0.0508
362.327	0.0499
362.695	0.0498
363.064	0.0489
363.432	0.049
363.8	0.0493
364.168	0.0487
364.536	0.0498
364.904	0.0496
365.272	0.0489
365.64	0.0481
366.008	0.0464
366.376	0.045
366.743	0.0435
367.111	0.0443
367.479	0.0466
367.847	0.0472
368.214	0.0468
368.582	0.0452
368.949	0.0442
369.317	0.0438
369.684	0.0429
370.052	0.0427
370.419	0.0419
370.787	0.0437
371.154	0.0427
371.521	0.0432
371.889	0.0421
372.256	0.0444
372.623	0.0424
372.99	0.0415
373.357	0.0379
373.724	0.0399
374.091	0.0374
374.458	0.0392
374.825	0.0384
375.192	0.0409
375.559	0.0404
375.926	0.0383
376.293	0.0371
376.659	0.0363
377.026	0.0373
377.393	0.0379
377.759	0.0376
378.126	0.0366
378.492	0.0341
378.859	0.0326
379.225	0.0325
379.592	0.0338
379.958	0.0365
380.325	0.0368
380.691	0.0373
381.057	0.0336
381.423	0.0346
381.79	0.0326
382.156	0.0341
382.522	0.0334
382.888	0.0338
383.254	0.033
383.62	0.0318
383.986	0.0308
384.352	0.0311
384.718	0.0291
385.084	0.0306
385.449	0.0301
385.815	0.0295
386.181	0.0289
386.547	0.0284
386.912	0.029
387.278	0.0284
387.643	0.0285
388.009	0.0268
388.374	0.026
388.74	0.0261
389.105	0.0279
389.471	0.0272
389.836	0.0253
390.201	0.0275
390.566	0.0293
390.932	0.0325
391.297	0.0301
391.662	0.0286
392.027	0.0274
392.392	0.0265
392.757	0.0272
393.122	0.0269
393.487	0.0288
393.852	0.0287
394.217	0.0281
394.582	0.0268
394.946	0.0272
395.311	0.0271
395.676	0.026
396.04	0.0243
396.405	0.0242
396.77	0.0258
397.134	0.0259
397.499	0.0245
397.863	0.0224
398.227	0.0214
398.592	0.0224
398.956	0.0222
399.32	0.0238
399.685	0.0233
400.049	0.0259
400.413	0.0251
400.777	0.027
401.141	0.0234
401.505	0.0241
401.869	0.0204
402.233	0.0219
402.597	0.0208
402.961	0.022
403.325	0.0204
403.689	0.0205
404.053	0.0224
404.416	0.0223
404.78	0.0216
405.144	0.0174
405.507	0.0166
405.871	0.0157
406.234	0.0169
406.598	0.0184
406.961	0.0208
407.325	0.0211
407.688	0.0205
408.051	0.02
408.415	0.0199
408.778	0.0217
409.141	0.0197
409.504	0.0197
409.867	0.0206
410.23	0.0222
410.593	0.0221
410.956	0.0183
411.319	0.0179
411.682	0.0181
412.045	0.0188
412.408	0.0193
412.771	0.02
413.134	0.019
413.496	0.019
413.859	0.0169
414.222	0.0184
414.584	0.0185
414.947	0.0203
415.309	0.017
415.672	0.0156
416.034	0.015
416.396	0.0169
416.759	0.0175
417.121	0.0175
417.483	0.0184
417.846	0.0171
418.208	0.0165
418.57	0.0145
418.932	0.0127
419.294	0.0111
419.656	0.0137
420.018	0.0156
420.38	0.0173
420.742	0.0144
421.104	0.0134
421.466	0.0143
421.827	0.018
422.189	0.0183
422.551	0.0175
422.912	0.016
423.274	0.0172
423.636	0.0157
423.997	0.0128
424.359	0.0118
424.72	0.013
425.081	0.0124
425.443	0.013
425.804	0.0124
426.165	0.0136
426.527	0.0137
426.888	0.0134
427.249	0.0166
427.61	0.0153
427.971	0.0155
428.332	0.0136
428.693	0.0146
429.054	0.015
429.415	0.0153
429.776	0.0127
430.137	0.0114
430.498	0.0093
430.858	0.01
431.219	0.0113
431.58	0.0146
431.94	0.0167
432.301	0.016
432.661	0.0124
433.022	0.0108
433.382	0.0084
433.743	0.0096
434.103	0.0114
434.463	0.0134
434.824	0.012
435.184	0.0104
435.544	0.0096
435.904	0.0108
436.264	0.0104
436.624	0.0113
436.985	0.0109
437.345	0.0108
437.704	0.0109
438.064	0.0115
438.424	0.014
438.784	0.0139
439.144	0.0139
439.504	0.0109
439.863	0.0114
440.223	0.0114
440.583	0.0109
440.942	0.0097
441.302	0.0102
441.661	0.0141
442.021	0.0128
442.38	0.0126
442.739	0.0096
443.099	0.0122
443.458	0.0112
443.817	0.0114
444.176	0.0115
444.536	0.0096
444.895	0.0071
445.254	0.006
445.613	0.0079
445.972	0.0095
446.331	0.0083
446.69	0.0075
447.049	0.0082
447.407	0.0085
447.766	0.0123
448.125	0.015
448.484	0.0149
448.842	0.012
449.201	0.0079
449.559	0.0059
449.918	0.0048
450.276	0.0057
450.635	0.0078
450.993	0.0063
451.352	0.0054
451.71	0.0071
452.068	0.0097
452.426	0.0099
452.785	0.0066
453.143	0.0058
453.501	0.0082
453.859	0.0102
454.217	0.0099
454.575	0.0077
454.933	0.0071
455.291	0.0082
455.649	0.0081
456.006	0.0092
456.364	0.0093
456.722	0.0089
457.079	0.0065
457.437	0.0051
457.795	0.0048
458.152	0.0063
458.51	0.0068
458.867	0.0069
459.225	0.0052
459.582	0.0044
459.939	0.0062
460.297	0.007
460.654	0.0047
461.011	0.0025
461.368	0.0025
461.725	0.005
462.082	0.0039
462.44	0.0074
462.797	0.0083
463.153	0.0091
463.51	0.0068
463.867	0.0062
464.224	0.0073
464.581	0.0059
464.938	0.0065
465.294	0.0065
465.651	0.0073
466.008	0.0053
466.364	0.0057
466.721	0.006
467.077	0.0073
467.434	0.0054
467.79	0.0037
468.146	0.0019
468.503	0.0011
468.859	0.002
469.215	0.0031
469.571	0.0054
469.927	0.0071
470.284	0.0086
470.64	0.0074
470.996	0.008
471.352	0.0052
471.707	0.0037
472.063	0.0019
472.419	0.0044
472.775	0.0064
473.131	0.0048
473.486	0.0042
473.842	0.0044
474.198	0.0059
474.553	0.0075
474.909	0.0064
475.264	0.0057
475.62	0.0064
475.975	0.0081
476.331	0.0084
476.686	0.0058
477.041	0.003
477.396	0.0044
477.752	0.0034
478.107	0.0055
478.462	0.0048
478.817	0.0064
479.172	0.0063
479.527	0.0064
479.882	0.0067
480.237	0.0059
480.591	0.0043
480.946	0.004
481.301	0.0048
481.656	0.0047
482.01	0.0052
482.365	0.0056
482.72	0.0074
483.074	0.0051
483.429	0.0026
483.783	0.0018
484.137	0.003
484.492	0.0023
484.846	0.0018
485.2	0.0003
485.555	0.004
485.909	0.0042
486.263	0.0041
486.617	0.0022
486.971	0.0016
487.325	0.0038
487.679	0.0044
488.033	0.0039
488.387	0.0025
488.741	0.0021
489.094	0.0036
489.448	0.0052
489.802	0.0054
490.156	0.0043
490.509	0.0016
490.863	0.0013
491.216	0
491.57	0.0011
491.923	0.0002
492.277	0.0013
492.63	0.0009
492.983	0.0016
493.337	0.002
493.69	0.0028
494.043	0.0023
494.396	0.0013
494.749	-0.0001
495.102	0.0023
495.455	0.0033
495.808	0.0026
496.161	-0.0004
496.514	-0.0006
496.867	0.0025
497.22	0.0026
497.572	0.0003
497.925	-0.0029
498.278	-0.0034
498.63	-0.0035
498.983	-0.0007
499.335	0.0009
499.688	0.0028
500.04	0.0029
500.393	0.0025
500.745	0.0018
501.097	0.002
501.449	0.0031
501.802	0.0041
502.154	0.0013
502.506	0.0005
502.858	-0.0031
503.21	-0.0023
503.562	-0.0007
503.914	0.0032
504.266	0.0041
504.618	0.0028
504.969	0.0015
505.321	0.0017
505.673	-0.0004
506.025	0.003
506.376	0.0037
506.728	0.005
507.079	0.0026
507.431	0.0014
507.782	0.0022
508.134	0.0017
508.485	0.0025
508.836	0.0038
509.188	0.0042
509.539	0.0038
509.89	0.0015
510.241	0.0007
510.592	0.0009
510.943	0.0014
511.294	0.0022
511.645	0.0026
511.996	0.0024
512.347	0.0021
512.698	0.0017
513.049	0.0009
513.399	-0.0014
513.75	-0.0041
514.101	-0.0044
514.451	-0.0018
514.802	0.0014
515.152	0.002
515.503	0.0001
515.853	0.0006
516.203	0.0017
516.554	0.0019
516.904	0.0012
517.254	0.0017
517.604	0.0026
517.955	0.0024
518.305	0.0018
518.655	0.0026
519.005	0.0007
519.355	-0.0008
519.705	-0.0044
520.055	-0.004
520.404	-0.0036
520.754	-0.0008
521.104	-0.001
521.454	0.0017
521.803	0.002
522.153	0.0029
522.502	-0.0011
522.852	-0.0006
523.201	-0.0005
523.551	0.0005
523.9	0.0011
524.249	0.0023
524.599	0.0014
524.948	-0.0013
525.297	-0.0024
525.646	-0.0015
525.995	-0.0022
526.344	-0.0023
526.694	-0.0008
527.042	0.0001
527.391	-0.002
527.74	-0.0033
528.089	-0.0031
528.438	-0.0017
528.787	-0.0006
529.135	-0.0033
529.484	-0.0026
529.833	-0.004
530.181	-0.0011
530.53	-0.0025
530.878	-0.0015
531.227	-0.0033
531.575	-0.001
531.923	-0.0015
532.271	0.0007
532.62	0.0005
532.968	0.0016
533.316	0.002
533.664	0.0013
534.012	-0.0004
534.36	-0.0021
534.708	-0.0042
535.056	-0.0033
535.404	0.0003
535.752	0.005
536.1	0.0035
536.447	0.0009
536.795	-0.0013
537.143	-0.0009
537.49	0.001
537.838	-0
538.185	-0.0014
538.533	-0.0001
538.88	0.0003
539.228	0.0018
539.575	-0.0006
539.922	-0.0012
540.269	0
540.617	-0.0007
540.964	0.002
541.311	0.0027
541.658	0.0004
542.005	-0.002
542.352	-0.0035
542.699	-0.0021
543.045	-0.002
543.392	-0.0018
543.739	-0.002
544.086	-0.0017
544.432	-0.0017
544.779	-0.0009
545.126	-0.0006
545.472	0.0024
545.819	0.002
546.165	0.0031
546.512	-0.0038
546.858	-0.0033
547.204	-0.0056
547.55	-0.0015
547.897	-0.0017
548.243	-0.0019
548.589	-0.0019
548.935	-0.0025
549.281	-0.0027
549.627	-0.0037
549.973	-0.0035
550.319	-0.0016
550.665	0.0009
551.01	0.0022
551.356	-0
551.702	-0.0009
552.048	-0.0029
552.393	-0.0027
552.739	-0.0054
553.084	-0.003
553.43	-0.0019
553.775	0.0013
554.12	0.0014
554.466	0.002
554.811	-0.0011
555.156	-0.001
555.502	-0.0019
555.847	0.0001
556.192	-0.0007
556.537	-0.0011
556.882	-0.0039
557.227	-0.0052
557.572	-0.0041
557.917	-0.0025
558.261	-0.0022
558.606	-0.003
558.951	-0.004
559.295	-0.0026
559.64	-0.0028
559.985	-0.0037
560.329	-0.004
560.674	-0.0032
561.018	-0.0019
561.363	-0.0046
561.707	-0.0039
562.051	-0.004
562.395	-0.0032
562.74	-0.0026
563.084	-0.0063
563.428	-0.0051
563.772	-0.0055
564.116	-0.0011
564.46	0.0012
564.804	0.0022
565.148	0.0001
565.492	-0.0011
565.835	-0.0016
566.179	0.0006
566.523	-0.004
566.866	-0.0073
567.21	-0.0078
567.554	-0.0076
567.897	-0.0044
568.24	-0.0062
568.584	-0.0055
568.927	-0.0067
569.271	-0.0052
569.614	-0.0054
569.957	-0.0028
570.3	-0.0037
570.643	-0.0031
570.986	-0.0034
571.329	-0.0038
571.672	-0.0004
572.015	-0.0014
572.358	-0.0004
572.701	-0.0049
573.044	-0.0058
573.387	-0.006
573.729	-0.0036
574.072	-0.0034
574.414	-0.0028
574.757	-0.0031
575.099	-0.0047
575.442	-0.005
575.784	-0.0053
576.127	-0.0032
576.469	-0.0037
576.811	-0.0043
577.153	-0.0027
577.496	-0.0037
577.838	-0.0042
578.18	-0.007
578.522	-0.0068
578.864	-0.0091
579.206	-0.0062
579.548	-0.0049
579.889	-0.0039
580.231	-0.0035
580.573	-0.0027
580.915	-0.0023
581.256	-0.0055
581.598	-0.0076
581.939	-0.0083
582.281	-0.0045
582.622	-0.0049
582.964	-0.0039
583.305	-0.0064
583.646	-0.0068
583.988	-0.003
584.329	-0.0035
584.67	-0.0043
585.011	-0.0074
585.352	-0.0071
585.693	-0.0034
586.034	-0.0048
586.375	-0.009
586.716	-0.0102
587.057	-0.0056
587.398	-0.0007
587.738	-0.0018
588.079	-0.0048
588.42	-0.0054
588.76	-0.0069
589.101	-0.0056
589.441	-0.0033
589.782	-0.0029
590.122	-0.0021
590.463	-0.0029
590.803	-0.0033
591.143	-0.0038
591.483	-0.0062
591.823	-0.0038
592.164	-0.0047
592.504	-0.0031
592.844	-0.0041
593.184	-0.0022
593.523	-0.0035
593.863	-0.0042
594.203	-0.0057
594.543	-0.0011
594.883	-0.0022
595.222	-0
595.562	0.001
595.901	-0.0006
596.241	-0.0021
596.58	-0.0067
596.92	-0.0054
597.259	-0.0078
597.599	-0.0067
597.938	-0.0079
598.277	-0.0075
598.616	-0.0093
598.955	-0.0104
599.295	-0.0085
599.634	-0.0063
599.973	-0.0037
600.312	-0.0039
600.65	-0.0047
600.989	-0.0056
601.328	-0.0052
601.667	-0.0023
602.005	-0.0049
602.344	-0.0068
602.683	-0.0069
603.021	-0.0059
603.36	-0.0048
603.698	-0.0069
604.037	-0.0055
604.375	-0.0045
604.713	-0.0056
605.052	-0.006
605.39	-0.0071
605.728	-0.005
606.066	-0.0019
606.404	-0.0045
606.742	-0.0048
607.08	-0.0033
607.418	-0.0027
607.756	-0.0038
608.094	-0.006
608.431	-0.0052
608.769	-0.0041
609.107	-0.0063
609.444	-0.0047
609.782	-0.0046
610.12	-0.0015
610.457	-0.0039
610.794	-0.0055
611.132	-0.0084
611.469	-0.0075
611.806	-0.0074
612.144	-0.0081
612.481	-0.006
612.818	-0.0055
613.155	-0.0062
613.492	-0.009
613.829	-0.0069
614.166	-0.0066
614.503	-0.0022
614.84	-0.0051
615.176	-0.0041
615.513	-0.0067
615.85	-0.0054
616.187	-0.0028
616.523	-0.0039
616.86	-0.0051
617.196	-0.0064
617.533	-0.0037
617.869	-0.0049
618.205	-0.0065
618.542	-0.0091
618.878	-0.0071
619.214	-0.0036
619.55	-0.0026
619.886	-0.0021
620.222	-0.0046
620.558	-0.0028
620.894	-0.0043
621.23	-0.006
621.566	-0.0067
621.902	-0.0075
622.238	-0.0069
622.573	-0.0083
622.909	-0.0098
623.244	-0.0106
623.58	-0.0122
623.916	-0.0089
624.251	-0.0101
624.586	-0.0086
624.922	-0.0104
625.257	-0.0093
625.592	-0.0088
625.927	-0.0076
626.263	-0.006
626.598	-0.0061
626.933	-0.008
627.268	-0.0066
627.603	-0.0071
627.938	-0.0092
628.272	-0.0112
628.607	-0.0115
628.942	-0.0072
629.277	-0.0108
629.611	-0.0131
629.946	-0.0135
630.281	-0.0089
630.615	-0.006
630.949	-0.0093
631.284	-0.0067
631.618	-0.0042
631.953	-0.0004
632.287	-0.0063
632.621	-0.0098
632.955	-0.0113
633.289	-0.0092
633.623	-0.0102
633.957	-0.0042
634.291	-0.0063
634.625	-0.0025
634.959	-0.0094
635.293	-0.0078
635.627	-0.0089
635.96	-0.0052
636.294	-0.0088
636.627	-0.0101
636.961	-0.0112
637.294	-0.0071
637.628	-0.0081
637.961	-0.0075
638.295	-0.0103
638.628	-0.0066
638.961	-0.0087
639.294	-0.0048
639.628	-0.0077
639.961	-0.0087
640.294	-0.0148
640.627	-0.0158
640.96	-0.0114
641.293	-0.0062
641.625	-0.0029
641.958	-0.004
642.291	-0.0065
642.624	-0.0042
642.956	-0.0034
643.289	0
643.621	-0.0027
643.954	-0.0085
644.286	-0.0076
644.619	-0.0043
644.951	0.0003
645.283	-0.0021
645.616	-0.0094
645.948	-0.0083
646.28	-0.0047
646.612	-0.0054
646.944	-0.0069
647.276	-0.0102
647.608	-0.0109
647.94	-0.0123
648.272	-0.0126
648.603	-0.0098
648.935	-0.0108
649.267	-0.0086
649.598	-0.0051
649.93	-0.0008
650.261	-0.0022
650.593	-0.0049
650.924	-0.0068
651.256	-0.0062
651.587	-0.0073
651.918	-0.0058
652.25	-0.0095
652.581	-0.0098
652.912	-0.0103
653.243	-0.0076
653.574	-0.006
653.905	-0.0082
654.236	-0.008
654.567	-0.0116
654.897	-0.0125
655.228	-0.0142
655.559	-0.0072
655.89	-0.0048
656.22	-0.0026
656.551	-0.0094
656.881	-0.0073
657.212	-0.0105
657.542	-0.0096
657.872	-0.0095
658.203	-0.01
658.533	0.006
658.863	0.0019
659.193	-0.0045
659.523	-0.0089
659.853	-0.0166
660.183	-0.009
660.513	-0.0101
660.843	-0.0046
661.173	-0.0035
661.503	-0.0016
661.833	-0.0059
662.162	-0.0087
662.492	-0.0096
662.822	-0.0101
663.151	-0.0129
663.481	-0.012
663.81	-0.011
664.139	-0.0101
664.469	-0.0065
664.798	-0.0036
665.127	-0.0054
665.456	-0.008
665.785	-0.0091
666.114	-0.0074
666.443	-0.0073
666.772	-0.0122
667.101	-0.0104
667.43	-0.0117
667.759	-0.0067
668.088	-0.0101
668.416	-0.0129
668.745	-0.0137
669.074	-0.0124
669.402	-0.0102
669.731	-0.0128
670.059	-0.0153
670.388	-0.0127
670.716	-0.0121
671.044	-0.0095
671.372	-0.0136
671.701	-0.0096
672.029	-0.0083
672.357	-0.0045
672.685	-0.002
673.013	-0.0027
673.341	-0.0028
673.669	-0.0076
673.996	-0.0078
674.324	-0.0026
674.652	-0.0027
674.98	-0.0042
675.307	-0.0071
675.635	-0.0088
675.962	-0.0062
676.29	-0.0053
676.617	-0.0063
676.945	-0.0057
677.272	-0.0113
677.599	-0.0063
677.926	-0.0077
678.253	-0.0065
678.581	-0.0119
678.908	-0.0102
679.235	-0.0084
679.561	-0.0067
679.888	-0.008
680.215	-0.0077
680.542	-0.0107
680.869	-0.0085
681.195	-0.012
681.522	-0.0069
681.849	-0.0097
682.175	-0.0087
682.502	-0.0087
682.828	-0.0079
683.154	-0.0029
683.481	-0.0012
683.807	-0.0012
684.133	-0.0096
684.459	-0.0173
684.785	-0.0135
685.111	-0.0078
685.437	-0.0092
685.763	-0.0143
686.089	-0.0191
686.415	-0.0112
686.741	-0.0096
687.067	-0.0074
687.392	-0.0114
687.718	-0.0112
688.043	-0.0115
688.369	-0.0055
688.694	-0.0036
689.02	-0.003
689.345	-0.0067
689.67	-0.0087
689.996	-0.0084
690.321	-0.0052
690.646	-0.0047
690.971	-0.0065
691.296	-0.0087
691.621	-0.0089
691.946	-0.0091
692.271	-0.0135
692.596	-0.0131
692.921	-0.0097
693.245	-0.0035
693.57	-0.0061
693.895	-0.0066
694.219	-0.0105
694.544	-0.0082
694.868	-0.0071
695.193	-0.0058
695.517	-0.005
695.841	-0.0069
696.166	-0.0059
696.49	-0.007
696.814	-0.0104
697.138	-0.01
697.462	-0.0068
697.786	-0.0054
698.11	-0.0057
698.434	-0.0094
698.758	-0.013
699.081	-0.0161
699.405	-0.0151
699.729	-0.0052
700.052	-0.006
700.376	-0.0109
700.7	-0.0161
701.023	-0.0147
701.346	-0.0095
701.67	-0.0104
701.993	-0.0099
702.316	-0.0091
702.639	-0.0082
702.963	-0.0137
703.286	-0.019
703.609	-0.0114
703.932	-0.0048
704.255	0.0002
704.578	-0.0062
704.9	-0.0084
705.223	-0.0125
705.546	-0.0067
705.868	-0.0066
706.191	-0.0018
706.514	-0.0081
706.836	-0.0089
707.159	-0.008
707.481	-0.005
707.803	-0.0068
708.126	-0.0112
708.448	-0.0091
708.77	-0.0041
709.092	-0.0011
709.414	-0.0042
709.736	-0.0079
710.058	-0.0077
710.38	-0.0064
710.702	-0.0094
711.024	-0.009
711.345	-0.0065
711.667	-0.0019
711.989	-0.003
712.31	-0.0084
712.632	-0.013
712.953	-0.0166
713.275	-0.0161
713.596	-0.0124
713.917	-0.01
714.239	-0.0066
714.56	-0.0066
714.881	-0.0082
715.202	-0.0099
715.523	-0.0082
715.844	-0.0061
716.165	-0.0096
716.486	-0.0072
716.807	-0.0115
717.128	-0.0111
717.448	-0.0115
717.769	-0.0096
718.09	-0.0079
718.41	-0.0122
718.731	-0.0108
719.051	-0.0104
719.372	-0.0115
719.692	-0.0116
720.012	-0.0053
720.332	-0.0051
720.653	-0.0067
720.973	-0.0108
721.293	-0.0121
721.613	-0.0103
721.933	-0.0113
722.253	-0.0054
722.573	-0.0095
722.892	-0.0116
723.212	-0.0122
723.532	-0.0053
723.851	-0.0079
724.171	-0.0074
724.491	-0.0131
724.81	-0.0109
725.129	-0.016
725.449	-0.014
725.768	-0.0107
726.087	-0.0088
726.407	-0.0092
726.726	-0.0095
727.045	-0.0124
727.364	-0.011
727.683	-0.0108
728.002	-0.0073
728.321	-0.0078
728.64	-0.0115
728.958	-0.0093
729.277	-0.0103
729.596	-0.0082
729.914	-0.0134
730.233	-0.0133
730.551	-0.0137
730.87	-0.0086
731.188	-0.0094
731.507	-0.0119
731.825	-0.0145
732.143	-0.0146
732.461	-0.0096
732.779	-0.0091
733.097	-0.0104
733.415	-0.0104
733.733	-0.0103
734.051	-0.0075
734.369	-0.0094
734.687	-0.0113
735.005	-0.014
735.322	-0.0143
735.64	-0.0116
735.957	-0.0062
736.275	-0.0072
736.592	-0.0097
736.91	-0.0184
737.227	-0.0152
737.544	-0.0109
737.862	-0.0038
738.179	-0.0061
738.496	-0.0076
738.813	-0.0121
739.13	-0.0102
739.447	-0.0165
739.764	-0.0131
740.081	-0.0168
740.398	-0.0133
740.714	-0.0186
741.031	-0.0231
741.348	-0.0221
741.664	-0.0158
741.981	-0.0054
742.297	-0.0051
742.614	-0.0046
742.93	-0.0089
743.246	-0.0109
743.563	-0.0199
743.879	-0.0198
744.195	-0.0213
744.511	-0.0155
744.827	-0.0148
745.143	-0.0121
745.459	-0.009
745.775	-0.009
746.091	-0.0114
746.406	-0.0169
746.722	-0.0171
747.038	-0.0135
747.353	-0.0109
747.669	-0.0192
747.984	-0.0219
748.3	-0.0198
748.615	-0.0147
748.93	-0.0103
749.246	-0.0068
749.561	-0.0042
749.876	-0.01
750.191	-0.0172
750.506	-0.018
750.821	-0.015
751.136	-0.0108
751.451	-0.0072
751.766	-0.0046
752.08	-0.0053
752.395	-0.0049
752.71	-0.0075
753.024	-0.0046
753.339	-0.0029
753.653	-0.0046
753.968	-0.0083
754.282	-0.0153
754.596	-0.0099
754.911	-0.0082
755.225	-0.0034
755.539	-0.007
755.853	-0.0079
756.167	-0.013
756.481	-0.0125
756.795	-0.0158
757.109	-0.0134
757.423	-0.0116
757.736	-0.0084
758.05	-0.0088
758.364	-0.0077
758.677	-0.0054
758.991	-0.0061
759.304	-0.0095
759.618	-0.009
759.931	-0.0096
760.244	-0.0108
760.558	-0.0134
760.871	-0.0123
761.184	-0.0122
761.497	-0.0157
761.81	-0.0171
762.123	-0.0147
762.436	-0.0074
762.749	-0.0055
763.062	-0.0053
763.374	-0.0118
763.687	-0.0132
764	-0.0129
764.312	-0.0088
764.625	-0.0076
764.937	-0.0068
765.25	-0.0094
765.562	-0.0052
765.874	-0.0066
766.186	-0.0076
766.499	-0.0066
766.811	-0.0052
767.123	-0.0036
767.435	-0.0083
767.747	-0.0109
768.059	-0.0118
768.37	-0.0103
768.682	-0.0108
768.994	-0.0119
769.306	-0.017
769.617	-0.0159
769.929	-0.0137
770.24	-0.012
770.552	-0.0094
770.863	-0.0075
771.174	-0.0101
771.486	-0.012
771.797	-0.0137
772.108	-0.011
772.419	-0.0054
772.73	-0.0034
773.041	-0.0047
773.352	-0.0104
773.663	-0.0106
773.974	-0.0118
774.285	-0.0163
774.595	-0.016
774.906	-0.0132
775.217	-0.0115
775.527	-0.0133
775.838	-0.0158
776.148	-0.015
776.458	-0.0085
776.769	-0.0091
777.079	-0.0127
777.389	-0.0208
777.699	-0.0172
778.009	-0.0114
778.319	-0.0056
778.629	-0.0057
778.939	-0.0051
779.249	-0.0085
779.559	-0.0092
779.869	-0.0129
780.178	-0.0155
780.488	-0.0152
780.798	-0.011
781.107	-0.0109
781.417	-0.0097
781.726	-0.0094
782.035	-0.0057
782.345	-0.0075
782.654	-0.0103
782.963	-0.0141
783.272	-0.0135
783.581	-0.0081
783.89	-0.0101
784.199	-0.0097
784.508	-0.0084
784.817	-0.0065
785.126	-0.0094
785.434	-0.012
785.743	-0.0105
786.052	-0.0047
786.36	-0.0059
786.669	-0.0054
786.977	-0.0096
787.285	-0.0108
787.594	-0.011
787.902	-0.0117
788.21	-0.0123
788.518	-0.0134
788.826	-0.0064
789.135	-0.0049
789.442	-0.0012
789.75	-0.0069
790.058	-0.0048
790.366	-0.0137
790.674	-0.0111
790.981	-0.0148
791.289	-0.0097
791.597	-0.0115
791.904	-0.0106
792.212	-0.0095
792.519	-0.011
792.826	-0.0114
793.134	-0.0074
793.441	-0.0043
793.748	-0.0057
794.055	-0.0073
794.362	-0.0131
794.669	-0.0151
794.976	-0.0161
795.283	-0.0117
795.59	-0.0038
795.897	-0.0079
796.203	-0.0033
796.51	-0.0047
796.817	-0.0076
797.123	-0.0125
797.43	-0.0135
797.736	-0.0103
798.042	-0.0101
798.349	-0.014
798.655	-0.0127
798.961	-0.0107
799.267	-0.0063
799.573	-0.0093
799.879	-0.0064
800.185	-0.0073
800.491	-0.0051
800.797	-0.0134
801.103	-0.0114
801.408	-0.0134
801.714	-0.0112
802.02	-0.0143
802.325	-0.0122
802.631	-0.0102
802.936	-0.018
803.242	-0.0232
803.547	-0.0189
803.852	-0.01
804.157	-0.0077
804.462	-0.0078
804.768	-0.0048
805.073	-0.0013
805.378	-0.009
805.682	-0.0137
805.987	-0.0199
806.292	-0.0187
806.597	-0.0153
806.902	-0.0153
807.206	-0.0112
807.511	-0.0137
807.815	-0.0046
808.12	-0.0066
808.424	0.0002
808.728	-0.0064
809.033	-0.008
809.337	-0.0171
809.641	-0.0173
809.945	-0.0166
810.249	-0.0164
810.553	-0.0107
810.857	-0.0093
811.161	-0.0092
811.465	-0.0118
811.768	-0.0169
812.072	-0.0137
812.376	-0.016
812.679	-0.0114
812.983	-0.0096
813.286	-0.0135
813.59	-0.0204
813.893	-0.0259
814.196	-0.0214
814.499	-0.0241
814.803	-0.0238
815.106	-0.0189
815.409	0.0011
815.712	0.0073
816.015	0.0047
816.318	-0.0089
816.62	-0.01
816.923	-0.0116
817.226	-0.0077
817.528	-0.0126
817.831	-0.0175
818.133	-0.0195
818.436	-0.0173
818.738	-0.0081
819.041	-0.0031
819.343	0.0028
819.645	-0.0035
819.947	0
820.249	-0.0014
820.551	0.0013
820.853	-0.0066
821.155	-0.0181
821.457	-0.0213
821.759	-0.0175
822.061	-0.0091
822.362	-0.0106
822.664	-0.0098
822.966	-0.011
823.267	-0.0065
823.569	-0.0145
823.87	-0.0141
824.171	-0.0181
824.473	-0.0171
824.774	-0.0213
825.075	-0.0169
825.376	-0.0167
825.677	-0.0091
825.978	-0.0085
826.279	-0.0027
826.58	-0.0092
826.881	-0.0197
827.181	-0.02
827.482	-0.012
827.783	0.0017
828.083	0.0006
828.384	-0.0086
828.684	-0.0145
828.985	-0.0207
829.285	-0.0193
829.585	-0.0157
829.885	-0.0092
830.185	-0.0005
830.486	0.0015
830.786	0.0007
831.086	-0.0118
831.385	-0.0155
831.685	-0.0147
831.985	-0.007
832.285	-0.0051
832.585	-0.0027
832.884	-0.0054
833.184	-0.0095
833.483	-0.0174
833.783	-0.0165
834.082	-0.0185
834.381	-0.0255
834.681	-0.0198
834.98	-0.0104
835.279	-0.0037
835.578	-0.0165
835.877	-0.0161
836.176	-0.0169
836.475	-0.0085
836.774	-0.0218
837.072	-0.0194
837.371	-0.0239
837.67	-0.0133
837.968	-0.0116
838.267	-0.0125
838.565	-0.0226
838.864	-0.0157
839.162	-0.0084
839.46	-0.0097
839.759	-0.0168
840.057	-0.0232
840.355	-0.0146
840.653	-0.0133
840.951	-0.0082
841.249	-0.0135
841.547	-0.0167
841.845	-0.0214
842.142	-0.0235
842.44	-0.0275
842.738	-0.0327
843.035	-0.021
843.333	-0.0161
843.63	-0.0074
843.928	-0.0185
844.225	-0.018
844.522	-0.0175
844.82	-0.022
845.117	-0.0198
845.414	-0.0161
845.711	-0.0164
846.008	-0.0268
846.305	-0.0273
846.602	-0.0101
846.898	0.0063
847.195	0.0005
847.492	-0.0073
847.788	-0.0127
848.085	-0.0101
848.382	-0.0124
848.678	-0.0277
848.974	-0.0202
849.271	-0.0202
849.567	-0.0171
849.863	-0.0264
850.159	-0.0142
850.455	-0.0142
850.751	-0.0076
851.047	-0.0194
851.343	-0.0081
851.639	-0.0164
851.935	-0.0142
852.23	-0.0255
852.526	-0.0233
852.822	-0.0192
853.117	-0.0011
853.413	0.0024
853.708	-0.0014
854.003	-0.0065
854.299	-0.003
854.594	-0.0168
854.889	-0.0299
855.184	-0.0408
855.479	-0.0318
855.774	-0.0391
856.069	-0.0332
856.364	-0.0321
856.659	-0.0176
856.954	-0.0204
857.248	-0.0046
857.543	-0.0044
857.837	0.0011
858.132	-0.0011
858.426	0.0063
858.721	0.0068
859.015	0.0017
859.309	0.012
859.604	-0.003
859.898	0.0093
860.192	-0.0004
860.486	0.0182
860.78	0.0072
861.074	0.0031
861.367	-0.007
861.661	-0.0144
861.955	-0.0153
862.248	0.0139
862.542	0.03
862.836	0.0144
863.129	-0.0037
863.422	-0.0142
863.716	-0.0079
864.009	-0.0132
864.302	-0.0223
864.595	-0.0236
864.889	-0.0147
865.182	-0.0173
865.475	-0.0273
865.767	-0.0319
866.06	-0.0197
866.353	0.0032
866.646	-0.0155
866.938	-0.008
867.231	0.0006
867.524	0.0159
867.816	-0.0045
868.109	-0.0282
868.401	-0.0427
868.693	-0.0322
868.985	-0.014
869.278	-0.0124
869.57	-0.0005
869.862	-0.0107
870.154	-0.0068
870.446	-0.0163
870.738	-0.0349
871.029	-0.0285
871.321	-0.0345
871.613	-0.0165
871.904	-0.0279
872.196	-0.0341
872.487	-0.0276
872.779	-0.0102
873.07	0.0023
873.362	-0.0285
873.653	-0.0409
873.944	-0.0402
874.235	-0.0057
874.526	0.0144
874.817	0.0336
875.108	0.0275
875.399	-0.0077
875.69	-0.0269
875.981	-0.049
876.271	-0.0224
876.562	-0.0245
876.853	-0.0001
877.143	-0.0272
877.434	-0.0305
877.724	-0.0418
878.014	-0.0262
878.305	-0.0085
878.595	-0.0118
878.885	0.0121
879.175	-0.0071
879.465	0.0097
879.755	0.0248
880.045	0.0316
880.335	0.0116
880.624	-0.0221
880.914	-0.0221
