Data from 71SS05LU_080517_1a_Absorbance_16-08-01-129.txt Node
Date: Sun Aug 06 16:08:01 MDT 2017
User: Tank Lab
Spectrometer: FLMS01220
Trigger mode: 0
Integration Time (sec): 1.000000E-1
Scans to average: 10
Electric dark correction enabled: true
Nonlinearity correction enabled: false
Boxcar width: 1
XAxis mode: Wavelengths
Number of Pixels in Spectrum: 2048
>>>>>Begin Spectral Data<<<<<
179.47	-0.1966
179.856	-0.1966
180.241	-0.1446
180.626	0.1556
181.011	1.273
181.396	-0
181.781	-0.4172
182.166	2.2029
182.551	-0.0595
182.936	0.2967
183.321	-0.0611
183.706	-0.6308
184.091	-0.1739
184.476	-0.6636
184.86	-0
185.245	-0
185.63	-0.0068
186.015	0.8239
186.399	-0
186.784	-0
187.169	0.0024
187.553	0.0682
187.938	-0
188.322	0.0609
188.707	0.1294
189.091	0.1677
189.475	0.1966
189.86	0.2184
190.244	0.2372
190.629	0.285
191.013	0.2931
191.397	0.3138
191.781	0.3471
192.165	0.3943
192.55	0.4047
192.934	0.4587
193.318	0.4811
193.702	0.5517
194.086	0.5809
194.47	0.5957
194.854	0.6014
195.238	0.5852
195.622	0.5903
196.006	0.5912
196.389	0.5984
196.773	0.6137
197.157	0.6343
197.541	0.6439
197.924	0.6492
198.308	0.6468
198.692	0.6551
199.075	0.6409
199.459	0.6461
199.843	0.6372
200.226	0.6465
200.61	0.6227
200.993	0.6238
201.376	0.6302
201.76	0.6415
202.143	0.6451
202.527	0.633
202.91	0.6254
203.293	0.6243
203.676	0.635
204.059	0.6479
204.443	0.6374
204.826	0.6369
205.209	0.6353
205.592	0.642
205.975	0.645
206.358	0.6359
206.741	0.6344
207.124	0.626
207.507	0.6252
207.89	0.6256
208.273	0.6288
208.655	0.6363
209.038	0.6311
209.421	0.6269
209.804	0.6204
210.186	0.6192
210.569	0.6218
210.951	0.6155
211.334	0.6141
211.717	0.6054
212.099	0.6072
212.482	0.6022
212.864	0.6001
213.246	0.5968
213.629	0.5971
214.011	0.5959
214.393	0.5943
214.776	0.5847
215.158	0.5754
215.54	0.5689
215.922	0.569
216.305	0.5662
216.687	0.5605
217.069	0.5535
217.451	0.5463
217.833	0.5402
218.215	0.5328
218.597	0.5308
218.979	0.5267
219.361	0.5216
219.742	0.514
220.124	0.5061
220.506	0.5005
220.888	0.4991
221.27	0.4934
221.651	0.4908
222.033	0.4812
222.415	0.4779
222.796	0.4719
223.178	0.4695
223.559	0.464
223.941	0.4584
224.322	0.4531
224.704	0.4462
225.085	0.4435
225.466	0.4353
225.848	0.4315
226.229	0.4261
226.61	0.4229
226.992	0.4174
227.373	0.4129
227.754	0.4101
228.135	0.4063
228.516	0.3999
228.897	0.3953
229.278	0.3905
229.659	0.3892
230.04	0.3829
230.421	0.3781
230.802	0.3733
231.183	0.3717
231.564	0.3697
231.944	0.3666
232.325	0.3642
232.706	0.3618
233.087	0.3568
233.467	0.3522
233.848	0.3488
234.229	0.3471
234.609	0.3451
234.99	0.3439
235.37	0.3413
235.751	0.3397
236.131	0.3366
236.511	0.3335
236.892	0.3281
237.272	0.3249
237.652	0.3214
238.033	0.3196
238.413	0.3174
238.793	0.3192
239.173	0.3192
239.553	0.3183
239.933	0.3157
240.313	0.3127
240.694	0.31
241.074	0.308
241.453	0.306
241.833	0.3038
242.213	0.3007
242.593	0.2984
242.973	0.2976
243.353	0.2957
243.732	0.2957
244.112	0.2931
244.492	0.2925
244.872	0.2905
245.251	0.2914
245.631	0.2894
246.01	0.2882
246.39	0.2858
246.769	0.2849
247.149	0.2833
247.528	0.2824
247.908	0.2836
248.287	0.2835
248.666	0.2818
249.045	0.2783
249.425	0.2775
249.804	0.2754
250.183	0.2738
250.562	0.2717
250.941	0.2717
251.32	0.2697
251.699	0.2683
252.078	0.2666
252.457	0.2668
252.836	0.267
253.215	0.2654
253.594	0.2652
253.973	0.2635
254.352	0.2641
254.731	0.2608
255.109	0.2592
255.488	0.2593
255.867	0.2615
256.245	0.2609
256.624	0.2588
257.002	0.2576
257.381	0.2575
257.759	0.256
258.138	0.2534
258.516	0.2517
258.895	0.2508
259.273	0.2497
259.651	0.2493
260.03	0.2498
260.408	0.2494
260.786	0.2494
261.164	0.2468
261.542	0.2459
261.921	0.2422
262.299	0.2427
262.677	0.2432
263.055	0.2432
263.433	0.2409
263.811	0.2392
264.188	0.24
264.566	0.24
264.944	0.2377
265.322	0.2351
265.7	0.2336
266.077	0.235
266.455	0.2341
266.833	0.2343
267.21	0.2327
267.588	0.2319
267.966	0.2291
268.343	0.2267
268.721	0.2245
269.098	0.2234
269.475	0.2226
269.853	0.223
270.23	0.2221
270.607	0.2208
270.985	0.2196
271.362	0.2185
271.739	0.2181
272.116	0.2167
272.494	0.2151
272.871	0.2133
273.248	0.2101
273.625	0.2095
274.002	0.2081
274.379	0.2098
274.756	0.2094
275.132	0.2092
275.509	0.2075
275.886	0.2059
276.263	0.2048
276.64	0.2025
277.016	0.202
277.393	0.2003
277.77	0.1995
278.146	0.1963
278.523	0.1942
278.899	0.1932
279.276	0.1918
279.652	0.1914
280.029	0.1897
280.405	0.19
280.782	0.188
281.158	0.1869
281.534	0.1862
281.91	0.1867
282.287	0.1855
282.663	0.1854
283.039	0.1843
283.415	0.1861
283.791	0.1849
284.167	0.1844
284.543	0.1809
284.919	0.1797
285.295	0.1764
285.671	0.1766
286.047	0.1756
286.423	0.1757
286.799	0.1747
287.174	0.1739
287.55	0.1727
287.926	0.1719
288.301	0.1711
288.677	0.171
289.053	0.1701
289.428	0.1679
289.804	0.1668
290.179	0.1645
290.555	0.1636
290.93	0.1634
291.305	0.164
291.681	0.1633
292.056	0.1632
292.431	0.1627
292.806	0.1624
293.182	0.1604
293.557	0.158
293.932	0.1562
294.307	0.1558
294.682	0.155
295.057	0.1542
295.432	0.1515
295.807	0.1522
296.182	0.1523
296.557	0.1527
296.932	0.1509
297.306	0.1507
297.681	0.1495
298.056	0.1479
298.43	0.1466
298.805	0.1454
299.18	0.1463
299.554	0.1448
299.929	0.1444
300.303	0.1426
300.678	0.1425
301.052	0.1411
301.427	0.1404
301.801	0.1398
302.175	0.1389
302.55	0.1391
302.924	0.1377
303.298	0.1372
303.672	0.1357
304.046	0.1351
304.421	0.1335
304.795	0.1317
305.169	0.1306
305.543	0.133
305.917	0.1336
306.291	0.1334
306.664	0.1303
307.038	0.1295
307.412	0.1303
307.786	0.1296
308.16	0.1269
308.533	0.1231
308.907	0.1222
309.281	0.1231
309.654	0.1238
310.028	0.1232
310.401	0.1221
310.775	0.122
311.148	0.12
311.522	0.1194
311.895	0.1182
312.268	0.12
312.642	0.1191
313.015	0.1191
313.388	0.1181
313.761	0.1172
314.135	0.1158
314.508	0.1142
314.881	0.1145
315.254	0.112
315.627	0.1114
316	0.112
316.373	0.1126
316.746	0.1129
317.118	0.1107
317.491	0.1108
317.864	0.1101
318.237	0.1094
318.61	0.1081
318.982	0.1055
319.355	0.1056
319.727	0.1058
320.1	0.1069
320.473	0.1059
320.845	0.1054
321.218	0.1047
321.59	0.1044
321.962	0.1015
322.335	0.1008
322.707	0.099
323.079	0.1002
323.452	0.0993
323.824	0.1002
324.196	0.0992
324.568	0.099
324.94	0.0979
325.312	0.0987
325.684	0.0982
326.056	0.0959
326.428	0.0942
326.8	0.0931
327.172	0.0942
327.544	0.0931
327.915	0.093
328.287	0.093
328.659	0.0917
329.031	0.0915
329.402	0.0896
329.774	0.089
330.145	0.0881
330.517	0.0888
330.888	0.0878
331.26	0.0873
331.631	0.0862
332.003	0.0875
332.374	0.0852
332.745	0.0847
333.117	0.0802
333.488	0.0803
333.859	0.0795
334.23	0.0812
334.601	0.0825
334.972	0.0808
335.343	0.0802
335.714	0.0769
336.085	0.0772
336.456	0.0768
336.827	0.0776
337.198	0.0772
337.569	0.0787
337.94	0.0779
338.31	0.0776
338.681	0.0755
339.052	0.0751
339.422	0.0741
339.793	0.0715
340.164	0.0699
340.534	0.0697
340.905	0.0705
341.275	0.0697
341.645	0.0702
342.016	0.0719
342.386	0.0723
342.756	0.0709
343.127	0.0698
343.497	0.0704
343.867	0.0702
344.237	0.0689
344.607	0.0684
344.977	0.0683
345.347	0.0694
345.717	0.0682
346.087	0.0668
346.457	0.0662
346.827	0.0656
347.197	0.0652
347.567	0.0648
347.936	0.0644
348.306	0.0654
348.676	0.0643
349.046	0.0641
349.415	0.0636
349.785	0.0625
350.154	0.0602
350.524	0.0611
350.893	0.062
351.263	0.0645
351.632	0.0631
352.001	0.0617
352.371	0.06
352.74	0.0591
353.109	0.0591
353.478	0.0602
353.847	0.06
354.217	0.0606
354.586	0.0599
354.955	0.0589
355.324	0.0572
355.693	0.0554
356.062	0.0551
356.43	0.0545
356.799	0.0535
357.168	0.0524
357.537	0.0524
357.906	0.0528
358.274	0.0536
358.643	0.0528
359.011	0.0534
359.38	0.0532
359.749	0.0525
360.117	0.0506
360.486	0.0502
360.854	0.0503
361.222	0.0499
361.591	0.0495
361.959	0.0494
362.327	0.0487
362.695	0.0483
363.064	0.0472
363.432	0.0473
363.8	0.0471
364.168	0.0467
364.536	0.0485
364.904	0.048
365.272	0.0475
365.64	0.0468
366.008	0.0454
366.376	0.0438
366.743	0.0423
367.111	0.0427
367.479	0.0459
367.847	0.047
368.214	0.0461
368.582	0.0454
368.949	0.0432
369.317	0.0452
369.684	0.0414
370.052	0.0413
370.419	0.0394
370.787	0.0426
371.154	0.042
371.521	0.0424
371.889	0.0417
372.256	0.0438
372.623	0.0414
372.99	0.0393
373.357	0.0374
373.724	0.0382
374.091	0.0382
374.458	0.0393
374.825	0.0401
375.192	0.0402
375.559	0.0379
375.926	0.0376
376.293	0.0367
376.659	0.0362
377.026	0.0365
377.393	0.0374
377.759	0.0382
378.126	0.0372
378.492	0.0366
378.859	0.0352
379.225	0.0345
379.592	0.0336
379.958	0.0351
380.325	0.0336
380.691	0.0343
381.057	0.0328
381.423	0.0337
381.79	0.0312
382.156	0.0314
382.522	0.031
382.888	0.0314
383.254	0.0315
383.62	0.0317
383.986	0.0315
384.352	0.0313
384.718	0.0298
385.084	0.0312
385.449	0.0306
385.815	0.0294
386.181	0.0279
386.547	0.0271
386.912	0.0281
387.278	0.0268
387.643	0.0268
388.009	0.0268
388.374	0.0271
388.74	0.0285
389.105	0.0291
389.471	0.0303
389.836	0.0289
390.201	0.0286
390.566	0.0291
390.932	0.0297
391.297	0.0302
391.662	0.0288
392.027	0.0267
392.392	0.0241
392.757	0.0235
393.122	0.0233
393.487	0.0258
393.852	0.0249
394.217	0.0249
394.582	0.0231
394.946	0.0244
395.311	0.0264
395.676	0.0273
396.04	0.0254
396.405	0.0247
396.77	0.0241
397.134	0.0241
397.499	0.0219
397.863	0.0209
398.227	0.0216
398.592	0.0237
398.956	0.024
399.32	0.0239
399.685	0.0236
400.049	0.0227
400.413	0.0231
400.777	0.0218
401.141	0.022
401.505	0.0206
401.869	0.019
402.233	0.019
402.597	0.0198
402.961	0.0212
403.325	0.0202
403.689	0.0194
404.053	0.0203
404.416	0.0198
404.78	0.0196
405.144	0.0189
405.507	0.0195
405.871	0.0185
406.234	0.0164
406.598	0.0172
406.961	0.0192
407.325	0.0202
407.688	0.0174
408.051	0.0169
408.415	0.0183
408.778	0.0215
409.141	0.0195
409.504	0.0174
409.867	0.0152
410.23	0.0158
410.593	0.0173
410.956	0.0173
411.319	0.0171
411.682	0.0155
412.045	0.0161
412.408	0.0177
412.771	0.0185
413.134	0.0206
413.496	0.0174
413.859	0.0149
414.222	0.0133
414.584	0.0168
414.947	0.0183
415.309	0.0162
415.672	0.0154
416.034	0.0165
416.396	0.0159
416.759	0.0171
417.121	0.0161
417.483	0.0198
417.846	0.0185
418.208	0.0211
418.57	0.0188
418.932	0.0157
419.294	0.0132
419.656	0.0136
420.018	0.0154
420.38	0.0143
420.742	0.0138
421.104	0.0127
421.466	0.0147
421.827	0.017
422.189	0.0177
422.551	0.0172
422.912	0.0139
423.274	0.0141
423.636	0.0145
423.997	0.0145
424.359	0.015
424.72	0.0135
425.081	0.0113
425.443	0.0083
425.804	0.0079
426.165	0.0094
426.527	0.0118
426.888	0.0122
427.249	0.0138
427.61	0.0122
427.971	0.0113
428.332	0.0077
428.693	0.0104
429.054	0.0108
429.415	0.0149
429.776	0.0122
430.137	0.0117
430.498	0.01
430.858	0.0095
431.219	0.0102
431.58	0.0115
431.94	0.0131
432.301	0.0129
432.661	0.0117
433.022	0.0097
433.382	0.0065
433.743	0.0053
434.103	0.0064
434.463	0.0089
434.824	0.0104
435.184	0.0085
435.544	0.0109
435.904	0.0123
436.264	0.0125
436.624	0.0105
436.985	0.0082
437.345	0.0093
437.704	0.0086
438.064	0.0106
438.424	0.0119
438.784	0.0111
439.144	0.0104
439.504	0.009
439.863	0.0119
440.223	0.0107
440.583	0.0083
440.942	0.0071
441.302	0.0085
441.661	0.012
442.021	0.0121
442.38	0.0107
442.739	0.0084
443.099	0.0088
443.458	0.0092
443.817	0.0089
444.176	0.0086
444.536	0.0067
444.895	0.006
445.254	0.0048
445.613	0.0059
445.972	0.0074
446.331	0.0063
446.69	0.0057
447.049	0.006
447.407	0.0066
447.766	0.0083
448.125	0.0106
448.484	0.0126
448.842	0.0104
449.201	0.0063
449.559	0.0036
449.918	0.0051
450.276	0.0068
450.635	0.0062
450.993	0.0048
451.352	0.0033
451.71	0.0047
452.068	0.0039
452.426	0.0055
452.785	0.0052
453.143	0.0064
453.501	0.0063
453.859	0.0074
454.217	0.007
454.575	0.0047
454.933	0.0038
455.291	0.0047
455.649	0.0053
456.006	0.0073
456.364	0.005
456.722	0.0078
457.079	0.0061
457.437	0.0091
457.795	0.0074
458.152	0.0061
458.51	0.0056
458.867	0.0057
459.225	0.0064
459.582	0.0084
459.939	0.0094
460.297	0.0091
460.654	0.0047
461.011	0.0017
461.368	0.0012
461.725	0.0024
462.082	0.0038
462.44	0.0074
462.797	0.0083
463.153	0.0085
463.51	0.009
463.867	0.0078
464.224	0.0087
464.581	0.0042
464.938	0.0047
465.294	0.0047
465.651	0.0061
466.008	0.0052
466.364	0.004
466.721	0.0042
467.077	0.0053
467.434	0.0045
467.79	0.0039
468.146	0.0028
468.503	0.0037
468.859	0.0035
469.215	0.0047
469.571	0.0045
469.927	0.0085
470.284	0.0093
470.64	0.0079
470.996	0.0044
471.352	0.0015
471.707	0.0035
472.063	0.005
472.419	0.0057
472.775	0.0038
473.131	0.0011
473.486	0.0021
473.842	0.0045
474.198	0.0039
474.553	0.0046
474.909	0.0021
475.264	0.0027
475.62	0.0026
475.975	0.0042
476.331	0.0049
476.686	0.003
477.041	0.0006
477.396	0.001
477.752	0.0041
478.107	0.0053
478.462	0.0046
478.817	0.0047
479.172	0.0043
479.527	0.0063
479.882	0.0048
480.237	0.0064
480.591	0.0046
480.946	0.0038
481.301	0.0033
481.656	0.0031
482.01	0.0034
482.365	0.0024
482.72	0.0039
483.074	0.0032
483.429	0.0013
483.783	0.0016
484.137	0.0026
484.492	0.0047
484.846	0.0022
485.2	0.0015
485.555	0.0039
485.909	0.0064
486.263	0.0051
486.617	0.0044
486.971	0.0025
487.325	0.0058
487.679	0.0045
488.033	0.0057
488.387	0.0022
488.741	0.0023
489.094	0.0017
489.448	0.0022
489.802	0.0031
490.156	0.0007
490.509	0.0003
490.863	-0.0007
491.216	0.0011
491.57	0.0024
491.923	0.002
492.277	0.0019
492.63	0.001
492.983	-0.0011
493.337	-0.0025
493.69	-0.0014
494.043	0.0009
494.396	0.0024
494.749	0.0015
495.102	0.0037
495.455	0.0042
495.808	0.0019
496.161	-0.0012
496.514	-0.002
496.867	0.0017
497.22	0.0013
497.572	-0.0009
497.925	-0.0025
498.278	-0.0019
498.63	-0.0013
498.983	-0.0002
499.335	-0.0009
499.688	0.0016
500.04	-0.0002
500.393	-0.0003
500.745	-0.002
501.097	0.0007
501.449	0.0029
501.802	0.0037
502.154	0.0025
502.506	0.0025
502.858	0.0006
503.21	0.0004
503.562	-0.001
503.914	0.0006
504.266	0.0003
504.618	0.0012
504.969	0.0017
505.321	0.0002
505.673	-0.0015
506.025	0.0007
506.376	0.0034
506.728	0.0055
507.079	0.0023
507.431	0.0015
507.782	0.0002
508.134	-0.0006
508.485	-0.0017
508.836	-0.0024
509.188	-0.0018
509.539	-0.0006
509.89	-0.0011
510.241	-0.0014
510.592	-0.0009
510.943	-0.0005
511.294	0.0026
511.645	0.0015
511.996	0.0022
512.347	-0.0019
512.698	-0.001
513.049	-0.0021
513.399	-0.0021
513.75	-0.0045
514.101	-0.0069
514.451	-0.0075
514.802	-0.0062
515.152	-0.0042
515.503	-0.0029
515.853	-0.0002
516.203	0
516.554	-0.0006
516.904	-0.0035
517.254	-0.0004
517.604	0.0004
517.955	0.0023
518.305	0.0014
518.655	0.0017
519.005	-0.0019
519.355	-0.0034
519.705	-0.0057
520.055	-0.0028
520.404	-0.0027
520.754	-0.0006
521.104	-0.0041
521.454	-0.0027
521.803	-0.0012
522.153	-0.0012
522.502	-0.0028
522.852	-0.0026
523.201	-0.0001
523.551	-0.0003
523.9	0.0002
524.249	0.0011
524.599	0.0007
524.948	-0.0048
525.297	-0.006
525.646	-0.006
525.995	-0.0023
526.344	-0.002
526.694	0.0001
527.042	-0.0022
527.391	-0.0045
527.74	-0.0078
528.089	-0.0061
528.438	-0.0045
528.787	-0.0013
529.135	-0.0029
529.484	-0.0023
529.833	-0.0027
530.181	-0.0032
530.53	-0.0046
530.878	-0.005
531.227	-0.0049
531.575	-0.0035
531.923	-0.0032
532.271	0.0003
532.62	-0.0018
532.968	0
533.316	-0.0013
533.664	0.0002
534.012	-0.0026
534.36	-0.0019
534.708	-0.0048
535.056	-0.0035
535.404	-0.0024
535.752	0.0039
536.1	0.0019
536.447	-0.0016
536.795	-0.0031
537.143	-0.0011
537.49	0.0028
537.838	-0.0002
538.185	-0.0013
538.533	-0.003
538.88	-0.0015
539.228	-0.0022
539.575	-0.0017
539.922	-0.0024
540.269	-0.0006
540.617	-0.0032
540.964	-0.0014
541.311	-0.0028
541.658	-0.0011
542.005	-0.0013
542.352	-0.0019
542.699	-0.0009
543.045	-0.0033
543.392	-0.0021
543.739	-0.0048
544.086	-0.0055
544.432	-0.0068
544.779	-0.005
545.126	-0.003
545.472	0.0003
545.819	0.0016
546.165	0.0024
546.512	-0.0022
546.858	-0.002
547.204	-0.0055
547.55	-0.0028
547.897	-0.0045
548.243	-0.0024
548.589	-0.0023
548.935	-0.0036
549.281	-0.0052
549.627	-0.0069
549.973	-0.0067
550.319	-0.0068
550.665	-0.0042
551.01	-0.004
551.356	-0.0018
551.702	-0.0038
552.048	-0.0042
552.393	-0.0032
552.739	-0.0027
553.084	-0.0019
553.43	-0.0062
553.775	-0.0048
554.12	-0.0019
554.466	0.0017
554.811	0.0012
555.156	-0.0033
555.502	-0.0057
555.847	-0.0047
556.192	-0.0032
556.537	-0.0005
556.882	0.0002
557.227	0.0001
557.572	-0.0019
557.917	-0.0035
558.261	-0.0034
558.606	-0.0025
558.951	-0.003
559.295	-0.0035
559.64	-0.0032
559.985	-0.0048
560.329	-0.0031
560.674	-0.0035
561.018	-0.0035
561.363	-0.0063
561.707	-0.0058
562.051	-0.0054
562.395	-0.0037
562.74	-0.0034
563.084	-0.0037
563.428	-0.0035
563.772	-0.0058
564.116	-0.0048
564.46	-0.003
564.804	-0.0011
565.148	-0.0031
565.492	-0.0046
565.835	-0.0031
566.179	-0.001
566.523	-0.0038
566.866	-0.0078
567.21	-0.0089
567.554	-0.008
567.897	-0.0009
568.24	-0.0016
568.584	-0.0015
568.927	-0.0075
569.271	-0.0064
569.614	-0.0056
569.957	-0.0028
570.3	-0.0047
570.643	-0.0047
570.986	-0.0051
571.329	-0.002
571.672	0.0009
572.015	0.0012
572.358	0.0011
572.701	-0.0032
573.044	-0.0067
573.387	-0.0071
573.729	-0.0038
574.072	-0.0031
574.414	-0.003
574.757	-0.0031
575.099	-0.0041
575.442	-0.0061
575.784	-0.0055
576.127	-0.0018
576.469	-0.0005
576.811	-0.0023
577.153	-0.0024
577.496	-0.0027
577.838	-0.0026
578.18	-0.006
578.522	-0.0069
578.864	-0.0095
579.206	-0.0074
579.548	-0.0066
579.889	-0.0068
580.231	-0.0053
580.573	-0.0024
580.915	-0.0024
581.256	-0.0057
581.598	-0.0093
581.939	-0.0106
582.281	-0.0058
582.622	-0.0035
582.964	-0.0019
583.305	-0.0061
583.646	-0.0075
583.988	-0.0043
584.329	-0.0044
584.67	-0.0064
585.011	-0.0101
585.352	-0.0101
585.693	-0.006
586.034	-0.0058
586.375	-0.0071
586.716	-0.011
587.057	-0.0092
587.398	-0.0061
587.738	-0.0015
588.079	-0.0022
588.42	-0.0048
588.76	-0.0094
589.101	-0.0093
589.441	-0.0059
589.782	-0.0039
590.122	-0.0032
590.463	-0.0056
590.803	-0.0063
591.143	-0.0079
591.483	-0.008
591.823	-0.0078
592.164	-0.0069
592.504	-0.0065
592.844	-0.0067
593.184	-0.0065
593.523	-0.0069
593.863	-0.0065
594.203	-0.0053
594.543	-0.0015
594.883	-0.0015
595.222	-0.0016
595.562	-0.0009
595.901	-0.0033
596.241	-0.0045
596.58	-0.0087
596.92	-0.0078
597.259	-0.0091
597.599	-0.0087
597.938	-0.0079
598.277	-0.0086
598.616	-0.009
598.955	-0.0089
599.295	-0.0067
599.634	-0.0032
599.973	-0.0032
600.312	-0.001
600.65	-0.0053
600.989	-0.007
601.328	-0.0078
601.667	-0.0038
602.005	-0.0074
602.344	-0.0091
602.683	-0.0089
603.021	-0.006
603.36	-0.0044
603.698	-0.006
604.037	-0.0046
604.375	-0.0057
604.713	-0.0059
605.052	-0.0066
605.39	-0.008
605.728	-0.0067
606.066	-0.0041
606.404	-0.0056
606.742	-0.0067
607.08	-0.0074
607.418	-0.0067
607.756	-0.0074
608.094	-0.0073
608.431	-0.0072
608.769	-0.0049
609.107	-0.0063
609.444	-0.0033
609.782	-0.0041
610.12	-0.0023
610.457	-0.0047
610.794	-0.0078
611.132	-0.0095
611.469	-0.0107
611.806	-0.0106
612.144	-0.0117
612.481	-0.0075
612.818	-0.0044
613.155	-0.0038
613.492	-0.0073
613.829	-0.0065
614.166	-0.0064
614.503	-0.0051
614.84	-0.009
615.176	-0.0098
615.513	-0.0071
615.85	-0.0046
616.187	0.0005
616.523	-0.004
616.86	-0.0043
617.196	-0.0075
617.533	-0.0033
617.869	-0.0028
618.205	-0.0045
618.542	-0.0081
618.878	-0.0117
619.214	-0.0098
619.55	-0.0084
619.886	-0.0061
620.222	-0.008
620.558	-0.0063
620.894	-0.0058
621.23	-0.0069
621.566	-0.0072
621.902	-0.0069
622.238	-0.0061
622.573	-0.0071
622.909	-0.0093
623.244	-0.0082
623.58	-0.0091
623.916	-0.0062
624.251	-0.0065
624.586	-0.0067
624.922	-0.0078
625.257	-0.0116
625.592	-0.0084
625.927	-0.0055
626.263	-0.0017
626.598	-0.0039
626.933	-0.0073
627.268	-0.0039
627.603	-0.0064
627.938	-0.0096
628.272	-0.0113
628.607	-0.008
628.942	-0.0032
629.277	-0.0062
629.611	-0.011
629.946	-0.0118
630.281	-0.0111
630.615	-0.0096
630.949	-0.0123
631.284	-0.0112
631.618	-0.0079
631.953	-0.0076
632.287	-0.0067
632.621	-0.0083
632.955	-0.0059
633.289	-0.0048
633.623	-0.006
633.957	-0.0013
634.291	-0.005
634.625	0.0002
634.959	-0.006
635.293	-0.0062
635.627	-0.0085
635.96	-0.0041
636.294	-0.0017
636.627	-0.0052
636.961	-0.0057
637.294	-0.0083
637.628	-0.008
637.961	-0.0116
638.295	-0.0111
638.628	-0.0082
638.961	-0.0087
639.294	-0.0039
639.628	-0.0053
639.961	-0.0067
640.294	-0.0141
640.627	-0.0108
640.96	-0.0085
641.293	-0.0043
641.625	-0.007
641.958	-0.0053
642.291	-0.0107
642.624	-0.0097
642.956	-0.009
643.289	-0.0011
643.621	-0.0031
643.954	-0.0064
644.286	-0.0068
644.619	-0.0058
644.951	-0.0042
645.283	-0.0052
645.616	-0.0082
645.948	-0.0074
646.28	-0.0065
646.612	-0.0035
646.944	-0.0038
647.276	-0.0066
647.608	-0.0087
647.94	-0.0078
648.272	-0.0052
648.603	-0.006
648.935	-0.009
649.267	-0.0084
649.598	-0.0077
649.93	-0.0049
650.261	-0.004
650.593	-0.0059
650.924	-0.0038
651.256	-0.0056
651.587	-0.0032
651.918	-0.0054
652.25	-0.0096
652.581	-0.0085
652.912	-0.0109
653.243	-0.005
653.574	-0.0024
653.905	0.0006
654.236	-0.0041
654.567	-0.0084
654.897	-0.0087
655.228	-0.0086
655.559	-0.0048
655.89	-0.0058
656.22	-0.0008
656.551	-0.0048
656.881	-0.0011
657.212	-0.0037
657.542	-0.0039
657.872	-0.0071
658.203	-0.0079
658.533	0.01
658.863	0.0051
659.193	-0.0049
659.523	-0.0116
659.853	-0.0216
660.183	-0.0114
660.513	-0.011
660.843	-0.0088
661.173	-0.0064
661.503	-0.0043
661.833	-0.006
662.162	-0.0091
662.492	-0.0097
662.822	-0.0101
663.151	-0.0117
663.481	-0.0077
663.81	-0.0046
664.139	-0.0047
664.469	0.0005
664.798	0.0027
665.127	0.0009
665.456	-0.0057
665.785	-0.0118
666.114	-0.0134
666.443	-0.0095
666.772	-0.0119
667.101	-0.0089
667.43	-0.0157
667.759	-0.0092
668.088	-0.0119
668.416	-0.0094
668.745	-0.0104
669.074	-0.0095
669.402	-0.0108
669.731	-0.0098
670.059	-0.0109
670.388	-0.0079
670.716	-0.0106
671.044	-0.0107
671.372	-0.0135
671.701	-0.0065
672.029	-0.002
672.357	0.0031
672.685	0.0026
673.013	0.0045
673.341	0.0007
673.669	-0.0058
673.996	-0.0054
674.324	0.0023
674.652	0.0022
674.98	-0.0022
675.307	-0.0082
675.635	-0.0071
675.962	-0.0053
676.29	-0.0067
676.617	-0.0095
676.945	-0.0111
677.272	-0.0135
677.599	-0.0112
677.926	-0.0126
678.253	-0.0108
678.581	-0.0132
678.908	-0.0122
679.235	-0.0116
679.561	-0.0103
679.888	-0.0099
680.215	-0.0072
680.542	-0.0119
680.869	-0.0087
681.195	-0.009
681.522	-0.0046
681.849	-0.0058
682.175	-0.0092
682.502	-0.0085
682.828	-0.0093
683.154	-0.0053
683.481	-0.006
683.807	-0.0056
684.133	-0.0084
684.459	-0.0167
684.785	-0.0142
685.111	-0.0129
685.437	-0.0074
685.763	-0.012
686.089	-0.0135
686.415	-0.0095
686.741	-0.0057
687.067	-0.0051
687.392	-0.0098
687.718	-0.0112
688.043	-0.0116
688.369	-0.0054
688.694	-0.0056
689.02	-0.0057
689.345	-0.0123
689.67	-0.015
689.996	-0.0142
690.321	-0.0085
690.646	-0.008
690.971	-0.0084
691.296	-0.0077
691.621	-0.0019
691.946	-0.0044
692.271	-0.0085
692.596	-0.0102
692.921	-0.0074
693.245	-0.0025
693.57	-0.0051
693.895	-0.0037
694.219	-0.0044
694.544	-0.0033
694.868	-0.0063
695.193	-0.0094
695.517	-0.0097
695.841	-0.0072
696.166	-0.0066
696.49	-0.0049
696.814	-0.0061
697.138	-0.0069
697.462	-0.0071
697.786	-0.0064
698.11	-0.0051
698.434	-0.0073
698.758	-0.0106
699.081	-0.0122
699.405	-0.0072
699.729	-0.0025
700.052	-0.0049
700.376	-0.0132
700.7	-0.0175
701.023	-0.0159
701.346	-0.0087
701.67	-0.0054
701.993	-0.0074
702.316	-0.0119
702.639	-0.0086
702.963	-0.0125
703.286	-0.0109
703.609	-0.0084
703.932	-0.0032
704.255	-0.005
704.578	-0.0115
704.9	-0.009
705.223	-0.008
705.546	-0.0079
705.868	-0.0095
706.191	-0.0103
706.514	-0.0097
706.836	-0.0102
707.159	-0.0043
707.481	-0.0054
707.803	-0.0022
708.126	-0.0072
708.448	-0.0027
708.77	-0.003
709.092	-0.0027
709.414	-0.0031
709.736	-0.0072
710.058	-0.01
710.38	-0.0082
710.702	-0.0099
711.024	-0.0046
711.345	-0.0092
711.667	-0.009
711.989	-0.0148
712.31	-0.0137
712.632	-0.0108
712.953	-0.0084
713.275	-0.0081
713.596	-0.0072
713.917	-0.0078
714.239	-0.0081
714.56	-0.0125
714.881	-0.0112
715.202	-0.0097
715.523	-0.0027
715.844	0.0002
716.165	-0.0052
716.486	-0.0094
716.807	-0.0139
717.128	-0.01
717.448	-0.0057
717.769	-0.0063
718.09	-0.0071
718.41	-0.0098
718.731	-0.0087
719.051	-0.008
719.372	-0.0092
719.692	-0.0112
720.012	-0.0063
720.332	-0.0069
720.653	-0.0033
720.973	-0.0117
721.293	-0.0124
721.613	-0.015
721.933	-0.0142
722.253	-0.0113
722.573	-0.0111
722.892	-0.0063
723.212	-0.0065
723.532	-0.0078
723.851	-0.0137
724.171	-0.0141
724.491	-0.0112
724.81	-0.0067
725.129	-0.0093
725.449	-0.0126
725.768	-0.0118
726.087	-0.0085
726.407	-0.0088
726.726	-0.008
727.045	-0.0136
727.364	-0.0069
727.683	-0.0093
728.002	-0.0065
728.321	-0.0107
728.64	-0.0134
728.958	-0.0116
729.277	-0.0128
729.596	-0.0096
729.914	-0.0144
730.233	-0.0109
730.551	-0.0111
730.87	-0.0062
731.188	-0.0072
731.507	-0.0076
731.825	-0.0082
732.143	-0.0078
732.461	-0.0056
732.779	-0.0055
733.097	-0.0084
733.415	-0.0079
733.733	-0.011
734.051	-0.0104
734.369	-0.0143
734.687	-0.0135
735.005	-0.0101
735.322	-0.0028
735.64	0.004
735.957	0.004
736.275	-0
736.592	-0.0035
736.91	-0.01
737.227	-0.0094
737.544	-0.0097
737.862	-0.0033
738.179	-0.0053
738.496	-0.0039
738.813	-0.0078
739.13	-0.008
739.447	-0.0126
739.764	-0.0108
740.081	-0.0125
740.398	-0.0116
740.714	-0.0129
741.031	-0.0124
741.348	-0.0135
741.664	-0.0114
741.981	-0.0082
742.297	-0.0053
742.614	-0.0068
742.93	-0.0086
743.246	-0.0118
743.563	-0.0172
743.879	-0.0205
744.195	-0.0179
744.511	-0.0138
744.827	-0.0111
745.143	-0.0114
745.459	-0.0086
745.775	-0.0098
746.091	-0.0144
746.406	-0.017
746.722	-0.0132
747.038	-0.0059
747.353	-0.0013
747.669	-0.0096
747.984	-0.0133
748.3	-0.0134
748.615	-0.0102
748.93	-0.0079
749.246	-0.011
749.561	-0.0094
749.876	-0.0118
750.191	-0.0134
750.506	-0.0137
750.821	-0.0119
751.136	-0.0079
751.451	-0.0053
751.766	-0.0009
752.08	-0.0062
752.395	-0.006
752.71	-0.0103
753.024	-0.0043
753.339	-0.0021
753.653	-0.0037
753.968	-0.0072
754.282	-0.0094
754.596	-0.0069
754.911	-0.0024
755.225	-0.0035
755.539	-0.0054
755.853	-0.0105
756.167	-0.0141
756.481	-0.0119
756.795	-0.0183
757.109	-0.0146
757.423	-0.0165
757.736	-0.0108
758.05	-0.0114
758.364	-0.0133
758.677	-0.0094
758.991	-0.0095
759.304	-0.0087
759.618	-0.0104
759.931	-0.0124
760.244	-0.0083
760.558	-0.0058
760.871	-0.0039
761.184	-0.0091
761.497	-0.0145
761.81	-0.0163
762.123	-0.0086
762.436	-0.0017
762.749	0.001
763.062	-0.0065
763.374	-0.0141
763.687	-0.0169
764	-0.0135
764.312	-0.009
764.625	-0.0102
764.937	-0.011
765.25	-0.0127
765.562	-0.0094
765.874	-0.0121
766.186	-0.0122
766.499	-0.0102
766.811	-0.0033
767.123	0.0008
767.435	0.0002
767.747	-0.0026
768.059	-0.0078
768.37	-0.0069
768.682	-0.0117
768.994	-0.012
769.306	-0.0136
769.617	-0.0117
769.929	-0.0084
770.24	-0.0094
770.552	-0.0042
770.863	-0.0043
771.174	-0.0101
771.486	-0.0106
771.797	-0.0115
772.108	-0.0091
772.419	-0.0079
772.73	-0.0066
773.041	-0.0043
773.352	-0.0096
773.663	-0.0101
773.974	-0.0131
774.285	-0.0106
774.595	-0.0122
774.906	-0.0085
775.217	-0.0073
775.527	-0.0072
775.838	-0.008
776.148	-0.0091
776.458	-0.0063
776.769	-0.0076
777.079	-0.0094
777.389	-0.0138
777.699	-0.0122
778.009	-0.0146
778.319	-0.009
778.629	-0.0066
778.939	-0.0066
779.249	-0.0083
779.559	-0.0106
779.869	-0.0124
780.178	-0.0126
780.488	-0.0138
780.798	-0.0058
781.107	-0.011
781.417	-0.0105
781.726	-0.0098
782.035	-0.0089
782.345	-0.011
782.654	-0.0132
782.963	-0.012
783.272	-0.0037
783.581	-0.0022
783.89	-0.0072
784.199	-0.0138
784.508	-0.0139
784.817	-0.0093
785.126	-0.0076
785.434	-0.0125
785.743	-0.013
786.052	-0.0113
786.36	-0.0045
786.669	-0.0068
786.977	-0.0101
787.285	-0.01
787.594	-0.0091
787.902	-0.0099
788.21	-0.0168
788.518	-0.0179
788.826	-0.0155
789.135	-0.0152
789.442	-0.0121
789.75	-0.0094
790.058	-0.003
790.366	-0.0085
790.674	-0.0117
790.981	-0.0186
791.289	-0.0174
791.597	-0.0154
791.904	-0.0116
792.212	-0.0094
792.519	-0.0138
792.826	-0.0174
793.134	-0.0079
793.441	-0.0065
793.748	-0.0066
794.055	-0.015
794.362	-0.0131
794.669	-0.0146
794.976	-0.0135
795.283	-0.0137
795.59	-0.0085
795.897	-0.0091
796.203	-0.0001
796.51	0.0021
796.817	-0.0032
797.123	-0.0102
797.43	-0.0122
797.736	-0.0087
798.042	-0.0064
798.349	-0.0081
798.655	-0.0063
798.961	-0.0107
799.267	-0.0121
799.573	-0.0153
799.879	-0.0092
800.185	-0.0048
800.491	-0.0044
800.797	-0.0145
801.103	-0.017
801.408	-0.0129
801.714	-0.0091
802.02	-0.0099
802.325	-0.009
802.631	-0.0082
802.936	-0.0088
803.242	-0.0157
803.547	-0.0123
803.852	-0.0109
804.157	-0.0036
804.462	0.0023
804.768	0.0087
805.073	0.0086
805.378	0.0028
805.682	0.0024
805.987	0.0005
806.292	0.002
806.597	-0.0028
806.902	-0.0042
807.206	-0.0056
807.511	-0.0064
807.815	-0.0011
808.12	-0.003
808.424	-0.0025
808.728	-0.0119
809.033	-0.0094
809.337	-0.0081
809.641	-0.0046
809.945	-0.009
810.249	-0.0147
810.553	-0.0104
810.857	-0.0078
811.161	-0.0011
811.465	-0.0074
811.768	-0.0173
812.072	-0.0195
812.376	-0.0209
812.679	-0.0135
812.983	-0.0143
813.286	-0.0142
813.59	-0.017
813.893	-0.0169
814.196	-0.0096
814.499	-0.008
814.803	-0.0095
815.106	-0.0142
815.409	-0.0097
815.712	-0.0051
816.015	-0.0058
816.318	-0.0068
816.62	-0.0073
816.923	-0.0082
817.226	-0.0079
817.528	-0.0083
817.831	-0.0076
818.133	-0.0146
818.436	-0.0146
818.738	-0.0133
819.041	-0.001
819.343	0.002
819.645	-0
819.947	0.0041
820.249	0.0039
820.551	0.0093
820.853	0.0013
821.155	-0.0162
821.457	-0.0239
821.759	-0.0229
822.061	-0.0104
822.362	-0.0053
822.664	-0.0039
822.966	-0.0084
823.267	-0.0099
823.569	-0.0183
823.87	-0.0137
824.171	-0.0147
824.473	-0.0111
824.774	-0.0094
825.075	-0.0132
825.376	-0.0205
825.677	-0.026
825.978	-0.0193
826.279	-0.0081
826.58	-0.0079
826.881	-0.0124
827.181	-0.0173
827.482	-0.013
827.783	-0.0094
828.083	-0.0054
828.384	-0.0115
828.684	-0.0118
828.985	-0.0231
829.285	-0.0202
829.585	-0.0233
829.885	-0.0103
830.185	-0.0122
830.486	-0.0113
830.786	-0.0176
831.086	-0.0238
831.385	-0.0258
831.685	-0.0239
831.985	-0.0131
832.285	-0.0101
832.585	-0.0076
832.884	-0.0118
833.184	-0.0221
833.483	-0.0233
833.783	-0.0153
834.082	-0.0079
834.381	-0.0075
834.681	-0.0004
834.98	0.0071
835.279	-0.0019
835.578	-0.0159
835.877	-0.0167
836.176	-0.0206
836.475	-0.0128
836.774	-0.0273
837.072	-0.0216
837.371	-0.0285
837.67	-0.0184
837.968	-0.0113
838.267	-0.0113
838.565	-0.016
838.864	-0.0096
839.162	-0.0113
839.46	-0.0066
839.759	-0.0107
840.057	-0.0115
840.355	-0.0072
840.653	-0.0087
840.951	-0.0153
841.249	-0.0158
841.547	-0.0243
841.845	-0.0145
842.142	-0.0233
842.44	-0.0225
842.738	-0.0297
843.035	-0.0209
843.333	-0.0121
843.63	-0.0071
843.928	-0.0134
844.225	-0.0165
844.522	-0.0112
844.82	-0.0096
845.117	-0.0107
845.414	-0.0188
845.711	-0.0209
846.008	-0.027
846.305	-0.014
846.602	-0.008
846.898	0.0082
847.195	0.0025
847.492	0.0074
847.788	-0.0034
848.085	-0.0005
848.382	-0.0058
848.678	-0.0088
848.974	-0.0081
849.271	0.0036
849.567	-0.0074
849.863	-0.0159
850.159	-0.0276
850.455	-0.0119
850.751	-0.016
851.047	-0.027
851.343	-0.0272
851.639	-0.029
851.935	-0.0274
852.23	-0.0325
852.526	-0.0252
852.822	-0.0141
853.117	0.0014
853.413	0.0004
853.708	-0.0151
854.003	-0.0252
854.299	-0.0155
854.594	-0.0196
854.889	-0.0162
855.184	-0.0342
855.479	-0.0226
855.774	-0.0267
856.069	-0.0081
856.364	-0.0089
856.659	-0.0115
856.954	-0.02
857.248	-0.0067
857.543	-0.0069
857.837	0.0016
858.132	0.0028
858.426	0.0137
858.721	0.0163
859.015	0.0068
859.309	0.0134
859.604	-0.0027
859.898	0.0131
860.192	-0.004
860.486	0.0149
860.78	0.0118
861.074	0.0159
861.367	0.0044
861.661	-0.0031
861.955	0.0028
862.248	0.018
862.542	0.028
862.836	0.0197
863.129	0.0226
863.422	0.0124
863.716	0.0041
864.009	-0.0302
864.302	-0.0392
864.595	-0.0262
864.889	-0.0103
865.182	-0.0091
865.475	-0.0321
865.767	-0.0428
866.06	-0.045
866.353	-0.0127
866.646	-0.0041
866.938	0.0028
867.231	0.002
867.524	0.0037
867.816	0.0002
868.109	-0.0246
868.401	-0.0371
868.693	-0.0396
868.985	-0.0218
869.278	-0.0143
869.57	-0.0032
869.862	-0.0237
870.154	-0.0241
870.446	-0.0215
870.738	-0.0238
871.029	-0.0339
871.321	-0.0444
871.613	-0.0112
871.904	-0.0113
872.196	-0.0158
872.487	-0.0386
872.779	-0.0171
873.07	-0.0015
873.362	0.0058
873.653	-0.028
873.944	-0.0386
874.235	-0.0528
874.526	-0.0032
874.817	0.0154
875.108	0.017
875.399	-0.0104
875.69	-0.0299
875.981	-0.0478
876.271	-0.032
876.562	-0.0438
876.853	-0.01
877.143	-0.0402
877.434	-0.0427
877.724	-0.0459
878.014	-0.0232
878.305	-0.0161
878.595	-0.0382
878.885	-0.043
879.175	-0.0304
879.465	-0.0196
879.755	-0.0345
880.045	-0.0293
880.335	-0.0151
880.624	0.016
880.914	0.016
