Data from 7SS03MI_073017_1b_Absorbance_17-13-51-288.txt Node
Date: Wed Aug 02 17:13:51 MDT 2017
User: Tank Lab
Spectrometer: FLMS01220
Trigger mode: 0
Integration Time (sec): 1.000000E-1
Scans to average: 10
Electric dark correction enabled: true
Nonlinearity correction enabled: false
Boxcar width: 1
XAxis mode: Wavelengths
Number of Pixels in Spectrum: 2048
>>>>>Begin Spectral Data<<<<<
179.47	-0.4531
179.856	-0.4531
180.241	-0
180.626	-0
181.011	-0
181.396	-0
181.781	-0.6198
182.166	-0
182.551	-0
182.936	-2.4075
183.321	-0
183.706	-0
184.091	-0
184.476	0.1882
184.86	0.494
185.245	-0
185.63	-0.8575
186.015	-0
186.399	-0
186.784	-0
187.169	-0
187.553	-0.7335
187.938	-0.1061
188.322	0.0184
188.707	0.0927
189.091	0.1471
189.475	0.1577
189.86	0.2368
190.244	0.2496
190.629	0.2989
191.013	0.3004
191.397	0.338
191.781	0.4141
192.165	0.5022
192.55	0.5591
192.934	0.5523
193.318	0.5905
193.702	0.5978
194.086	0.6697
194.47	0.6628
194.854	0.6679
195.238	0.6707
195.622	0.6714
196.006	0.7097
196.389	0.7292
196.773	0.7578
197.157	0.7588
197.541	0.745
197.924	0.7211
198.308	0.702
198.692	0.6933
199.075	0.6915
199.459	0.7018
199.843	0.6853
200.226	0.6798
200.61	0.6674
200.993	0.6616
201.376	0.6562
201.76	0.6449
202.143	0.6369
202.527	0.6367
202.91	0.639
203.293	0.6362
203.676	0.6217
204.059	0.6054
204.443	0.6001
204.826	0.5953
205.209	0.5993
205.592	0.5973
205.975	0.603
206.358	0.5919
206.741	0.5855
207.124	0.5801
207.507	0.5774
207.89	0.5735
208.273	0.5622
208.655	0.5626
209.038	0.5614
209.421	0.5618
209.804	0.5551
210.186	0.5596
210.569	0.5537
210.951	0.5511
211.334	0.5419
211.717	0.5423
212.099	0.5386
212.482	0.5366
212.864	0.5397
213.246	0.5365
213.629	0.5333
214.011	0.5239
214.393	0.5243
214.776	0.5218
215.158	0.5248
215.54	0.5197
215.922	0.516
216.305	0.5107
216.687	0.5094
217.069	0.5054
217.451	0.4965
217.833	0.4948
218.215	0.495
218.597	0.4977
218.979	0.4959
219.361	0.4909
219.742	0.4888
220.124	0.4807
220.506	0.4794
220.888	0.4756
221.27	0.4763
221.651	0.4722
222.033	0.4722
222.415	0.4692
222.796	0.4648
223.178	0.4599
223.559	0.4595
223.941	0.462
224.322	0.458
224.704	0.4541
225.085	0.4507
225.466	0.4483
225.848	0.4437
226.229	0.4394
226.61	0.4379
226.992	0.4362
227.373	0.431
227.754	0.4283
228.135	0.4272
228.516	0.4282
228.897	0.4269
229.278	0.4224
229.659	0.4174
230.04	0.4141
230.421	0.414
230.802	0.4154
231.183	0.4136
231.564	0.4116
231.944	0.4086
232.325	0.4054
232.706	0.404
233.087	0.4027
233.467	0.4011
233.848	0.3978
234.229	0.3946
234.609	0.3924
234.99	0.3909
235.37	0.3878
235.751	0.386
236.131	0.3834
236.511	0.383
236.892	0.3818
237.272	0.3773
237.652	0.3733
238.033	0.3716
238.413	0.3727
238.793	0.3724
239.173	0.3695
239.553	0.3663
239.933	0.3645
240.313	0.3628
240.694	0.3629
241.074	0.361
241.453	0.359
241.833	0.358
242.213	0.3555
242.593	0.353
242.973	0.3502
243.353	0.3491
243.732	0.3488
244.112	0.3467
244.492	0.3439
244.872	0.3414
245.251	0.3417
245.631	0.3414
246.01	0.3405
246.39	0.3377
246.769	0.3368
247.149	0.3358
247.528	0.3355
247.908	0.3345
248.287	0.3345
248.666	0.3321
249.045	0.3301
249.425	0.3274
249.804	0.3279
250.183	0.326
250.562	0.325
250.941	0.3227
251.32	0.3232
251.699	0.3214
252.078	0.321
252.457	0.3185
252.836	0.3192
253.215	0.3155
253.594	0.3155
253.973	0.3127
254.352	0.3122
254.731	0.3115
255.109	0.3124
255.488	0.3113
255.867	0.31
256.245	0.3078
256.624	0.3071
257.002	0.3054
257.381	0.3069
257.759	0.3062
258.138	0.3068
258.516	0.3026
258.895	0.3016
259.273	0.2986
259.651	0.2982
260.03	0.2962
260.408	0.2955
260.786	0.295
261.164	0.2953
261.542	0.2941
261.921	0.2932
262.299	0.2917
262.677	0.2911
263.055	0.2901
263.433	0.2901
263.811	0.2871
264.188	0.2857
264.566	0.2834
264.944	0.2832
265.322	0.2821
265.7	0.2822
266.077	0.2816
266.455	0.2795
266.833	0.2753
267.21	0.2751
267.588	0.2743
267.966	0.2723
268.343	0.2706
268.721	0.2685
269.098	0.2693
269.475	0.268
269.853	0.2685
270.23	0.2667
270.607	0.2648
270.985	0.2617
271.362	0.2624
271.739	0.2606
272.116	0.2612
272.494	0.2586
272.871	0.2586
273.248	0.2578
273.625	0.2566
274.002	0.2556
274.379	0.2526
274.756	0.2507
275.132	0.248
275.509	0.2459
275.886	0.2455
276.263	0.2438
276.64	0.2439
277.016	0.2425
277.393	0.242
277.77	0.2416
278.146	0.2397
278.523	0.239
278.899	0.2354
279.276	0.2357
279.652	0.2332
280.029	0.2311
280.405	0.2285
280.782	0.2268
281.158	0.2274
281.534	0.226
281.91	0.2259
282.287	0.2252
282.663	0.2245
283.039	0.2235
283.415	0.2222
283.791	0.2214
284.167	0.2205
284.543	0.2194
284.919	0.2173
285.295	0.2151
285.671	0.2119
286.047	0.2091
286.423	0.2076
286.799	0.2093
287.174	0.2102
287.55	0.209
287.926	0.2075
288.301	0.2053
288.677	0.2057
289.053	0.2034
289.428	0.2034
289.804	0.2025
290.179	0.2008
290.555	0.1983
290.93	0.1961
291.305	0.1953
291.681	0.196
292.056	0.1941
292.431	0.1929
292.806	0.1898
293.182	0.1889
293.557	0.1898
293.932	0.1904
294.307	0.1892
294.682	0.186
295.057	0.184
295.432	0.1835
295.807	0.1817
296.182	0.1811
296.557	0.1789
296.932	0.1787
297.306	0.1787
297.681	0.1791
298.056	0.1788
298.43	0.1763
298.805	0.1759
299.18	0.1756
299.554	0.1755
299.929	0.1739
300.303	0.172
300.678	0.1717
301.052	0.1724
301.427	0.1715
301.801	0.17
302.175	0.1686
302.55	0.1662
302.924	0.1647
303.298	0.1634
303.672	0.1651
304.046	0.1635
304.421	0.161
304.795	0.1616
305.169	0.1617
305.543	0.164
305.917	0.1605
306.291	0.1588
306.664	0.155
307.038	0.154
307.412	0.1533
307.786	0.1529
308.16	0.1534
308.533	0.1528
308.907	0.1538
309.281	0.1517
309.654	0.1516
310.028	0.1501
310.401	0.1492
310.775	0.1495
311.148	0.1473
311.522	0.1477
311.895	0.1459
312.268	0.1447
312.642	0.1424
313.015	0.1408
313.388	0.1432
313.761	0.1422
314.135	0.1395
314.508	0.1361
314.881	0.136
315.254	0.136
315.627	0.1357
316	0.1346
316.373	0.1357
316.746	0.1334
317.118	0.1333
317.491	0.132
317.864	0.1353
318.237	0.1336
318.61	0.1326
318.982	0.1299
319.355	0.1301
319.727	0.1291
320.1	0.1277
320.473	0.1277
320.845	0.1265
321.218	0.1279
321.59	0.1255
321.962	0.1242
322.335	0.1206
322.707	0.1214
323.079	0.1207
323.452	0.1208
323.824	0.1177
324.196	0.1186
324.568	0.1165
324.94	0.1171
325.312	0.1159
325.684	0.1164
326.056	0.1158
326.428	0.115
326.8	0.1139
327.172	0.1143
327.544	0.1127
327.915	0.112
328.287	0.1109
328.659	0.1101
329.031	0.1094
329.402	0.1075
329.774	0.1067
330.145	0.1047
330.517	0.1049
330.888	0.1049
331.26	0.1061
331.631	0.1052
332.003	0.1053
332.374	0.1037
332.745	0.1033
333.117	0.1005
333.488	0.0991
333.859	0.0987
334.23	0.1002
334.601	0.1002
334.972	0.1003
335.343	0.0999
335.714	0.1003
336.085	0.0991
336.456	0.0976
336.827	0.0957
337.198	0.094
337.569	0.0926
337.94	0.0912
338.31	0.0911
338.681	0.0909
339.052	0.0922
339.422	0.092
339.793	0.0913
340.164	0.0919
340.534	0.0896
340.905	0.0898
341.275	0.0883
341.645	0.0901
342.016	0.0879
342.386	0.0879
342.756	0.0868
343.127	0.0858
343.497	0.0859
343.867	0.0838
344.237	0.0849
344.607	0.0831
344.977	0.0847
345.347	0.0829
345.717	0.0812
346.087	0.0773
346.457	0.0784
346.827	0.0789
347.197	0.0812
347.567	0.0809
347.936	0.0816
348.306	0.0792
348.676	0.0784
349.046	0.0751
349.415	0.0764
349.785	0.074
350.154	0.0759
350.524	0.0737
350.893	0.0731
351.263	0.0724
351.632	0.0744
352.001	0.0765
352.371	0.0745
352.74	0.0738
353.109	0.0737
353.478	0.0726
353.847	0.0718
354.217	0.069
354.586	0.0698
354.955	0.0688
355.324	0.0707
355.693	0.0696
356.062	0.0693
356.43	0.0679
356.799	0.0694
357.168	0.0688
357.537	0.0664
357.906	0.0654
358.274	0.0665
358.643	0.0678
359.011	0.0665
359.38	0.0656
359.749	0.0645
360.117	0.0648
360.486	0.065
360.854	0.0657
361.222	0.0648
361.591	0.0634
361.959	0.0622
362.327	0.0637
362.695	0.0625
363.064	0.0613
363.432	0.0597
363.8	0.0596
364.168	0.0597
364.536	0.0593
364.904	0.0588
365.272	0.057
365.64	0.0569
366.008	0.0546
366.376	0.0577
366.743	0.0544
367.111	0.0552
367.479	0.054
367.847	0.0559
368.214	0.0573
368.582	0.0569
368.949	0.0565
369.317	0.0559
369.684	0.0545
370.052	0.053
370.419	0.0521
370.787	0.0511
371.154	0.0509
371.521	0.0506
371.889	0.051
372.256	0.0485
372.623	0.0494
372.99	0.0483
373.357	0.0498
373.724	0.0508
374.091	0.0527
374.458	0.0523
374.825	0.0483
375.192	0.0477
375.559	0.0489
375.926	0.0485
376.293	0.046
376.659	0.0439
377.026	0.044
377.393	0.0448
377.759	0.0453
378.126	0.0449
378.492	0.0443
378.859	0.0435
379.225	0.0429
379.592	0.0433
379.958	0.0449
380.325	0.0445
380.691	0.0449
381.057	0.0435
381.423	0.0436
381.79	0.0419
382.156	0.0411
382.522	0.0411
382.888	0.0418
383.254	0.0427
383.62	0.0428
383.986	0.0431
384.352	0.0425
384.718	0.0432
385.084	0.0405
385.449	0.0397
385.815	0.0381
386.181	0.0389
386.547	0.0391
386.912	0.0367
387.278	0.0371
387.643	0.0382
388.009	0.0399
388.374	0.0374
388.74	0.037
389.105	0.0358
389.471	0.0375
389.836	0.0376
390.201	0.0385
390.566	0.039
390.932	0.039
391.297	0.0387
391.662	0.0363
392.027	0.0357
392.392	0.0336
392.757	0.0341
393.122	0.0332
393.487	0.0364
393.852	0.0369
394.217	0.0362
394.582	0.0356
394.946	0.0366
395.311	0.0375
395.676	0.0361
396.04	0.0327
396.405	0.0293
396.77	0.0278
397.134	0.0292
397.499	0.0317
397.863	0.0328
398.227	0.0314
398.592	0.0314
398.956	0.0321
399.32	0.033
399.685	0.0325
400.049	0.0312
400.413	0.0296
400.777	0.0294
401.141	0.0323
401.505	0.0307
401.869	0.0302
402.233	0.0267
402.597	0.0284
402.961	0.0307
403.325	0.0312
403.689	0.0327
404.053	0.0327
404.416	0.0343
404.78	0.0331
405.144	0.0312
405.507	0.0308
405.871	0.0299
406.234	0.0282
406.598	0.0276
406.961	0.0285
407.325	0.028
407.688	0.0272
408.051	0.026
408.415	0.027
408.778	0.0266
409.141	0.0271
409.504	0.0268
409.867	0.0284
410.23	0.0274
410.593	0.0255
410.956	0.0235
411.319	0.0198
411.682	0.0198
412.045	0.0185
412.408	0.0216
412.771	0.0237
413.134	0.0242
413.496	0.0245
413.859	0.0239
414.222	0.0248
414.584	0.0266
414.947	0.0249
415.309	0.0235
415.672	0.0213
416.034	0.0214
416.396	0.0241
416.759	0.0251
417.121	0.0241
417.483	0.0218
417.846	0.0197
418.208	0.0212
418.57	0.0216
418.932	0.0227
419.294	0.0204
419.656	0.0194
420.018	0.0179
420.38	0.0209
420.742	0.0197
421.104	0.0219
421.466	0.0244
421.827	0.0273
422.189	0.0247
422.551	0.0201
422.912	0.017
423.274	0.0207
423.636	0.0206
423.997	0.0227
424.359	0.022
424.72	0.0243
425.081	0.026
425.443	0.0233
425.804	0.0214
426.165	0.018
426.527	0.0207
426.888	0.021
427.249	0.0223
427.61	0.0222
427.971	0.0224
428.332	0.0203
428.693	0.0183
429.054	0.0162
429.415	0.0175
429.776	0.019
430.137	0.0202
430.498	0.0182
430.858	0.0168
431.219	0.0172
431.58	0.0186
431.94	0.0183
432.301	0.0187
432.661	0.0181
433.022	0.0184
433.382	0.016
433.743	0.018
434.103	0.0185
434.463	0.0195
434.824	0.0194
435.184	0.0178
435.544	0.0165
435.904	0.0157
436.264	0.0166
436.624	0.0193
436.985	0.0165
437.345	0.014
437.704	0.0128
438.064	0.012
438.424	0.0124
438.784	0.0123
439.144	0.016
439.504	0.0175
439.863	0.0173
440.223	0.0176
440.583	0.018
440.942	0.0185
441.302	0.0183
441.661	0.0163
442.021	0.0156
442.38	0.0134
442.739	0.0159
443.099	0.0175
443.458	0.0183
443.817	0.0191
444.176	0.0184
444.536	0.0187
444.895	0.0141
445.254	0.0137
445.613	0.0133
445.972	0.0159
446.331	0.0154
446.69	0.0136
447.049	0.0141
447.407	0.0145
447.766	0.0173
448.125	0.016
448.484	0.0146
448.842	0.0141
449.201	0.0148
449.559	0.0157
449.918	0.0122
450.276	0.0097
450.635	0.01
450.993	0.0113
451.352	0.0125
451.71	0.0114
452.068	0.0125
452.426	0.0138
452.785	0.0154
453.143	0.0131
453.501	0.0116
453.859	0.0082
454.217	0.0087
454.575	0.0082
454.933	0.0084
455.291	0.011
455.649	0.0125
456.006	0.013
456.364	0.012
456.722	0.0104
457.079	0.0103
457.437	0.0113
457.795	0.0104
458.152	0.0119
458.51	0.0109
458.867	0.0125
459.225	0.0115
459.582	0.0097
459.939	0.0096
460.297	0.0085
460.654	0.0052
461.011	0.0057
461.368	0.0076
461.725	0.0141
462.082	0.0132
462.44	0.0137
462.797	0.0096
463.153	0.0114
463.51	0.0108
463.867	0.0107
464.224	0.0098
464.581	0.0107
464.938	0.0121
465.294	0.0121
465.651	0.014
466.008	0.0159
466.364	0.0142
466.721	0.0146
467.077	0.0121
467.434	0.0156
467.79	0.0134
468.146	0.0151
468.503	0.0126
468.859	0.0098
469.215	0.0072
469.571	0.0068
469.927	0.01
470.284	0.0103
470.64	0.0093
470.996	0.006
471.352	0.0087
471.707	0.0096
472.063	0.0094
472.419	0.0104
472.775	0.0092
473.131	0.0107
473.486	0.008
473.842	0.008
474.198	0.0076
474.553	0.0075
474.909	0.0089
475.264	0.008
475.62	0.0094
475.975	0.0097
476.331	0.008
476.686	0.0086
477.041	0.0091
477.396	0.0102
477.752	0.011
478.107	0.0099
478.462	0.0116
478.817	0.0087
479.172	0.0065
479.527	0.0064
479.882	0.0057
480.237	0.009
480.591	0.009
480.946	0.0126
481.301	0.0118
481.656	0.0113
482.01	0.0092
482.365	0.0095
482.72	0.0121
483.074	0.0125
483.429	0.0108
483.783	0.0076
484.137	0.0055
484.492	0.0057
484.846	0.0061
485.2	0.0061
485.555	0.006
485.909	0.0055
486.263	0.0059
486.617	0.0043
486.971	0.0039
487.325	0.0054
487.679	0.0083
488.033	0.0075
488.387	0.0088
488.741	0.0084
489.094	0.0067
489.448	0.0046
489.802	0.0047
490.156	0.0064
490.509	0.0051
490.863	0.0043
491.216	0.006
491.57	0.0056
491.923	0.006
492.277	0.0043
492.63	0.005
492.983	0.0041
493.337	0.0046
493.69	0.006
494.043	0.0068
494.396	0.0084
494.749	0.0078
495.102	0.0086
495.455	0.0076
495.808	0.0063
496.161	0.0063
496.514	0.0072
496.867	0.0087
497.22	0.0081
497.572	0.0064
497.925	0.0051
498.278	0.004
498.63	0.007
498.983	0.0103
499.335	0.0114
499.688	0.0095
500.04	0.0066
500.393	0.0055
500.745	0.0042
501.097	0.0056
501.449	0.005
501.802	0.0056
502.154	0.0056
502.506	0.005
502.858	0.0058
503.21	0.0046
503.562	0.007
503.914	0.0072
504.266	0.0064
504.618	0.0033
504.969	0.0034
505.321	0.0043
505.673	0.0059
506.025	0.0034
506.376	0.0026
506.728	-0.0002
507.079	0.0013
507.431	-0.0006
507.782	0.0037
508.134	0.0021
508.485	0.0018
508.836	0.0008
509.188	0.0026
509.539	0.0076
509.89	0.0054
510.241	0.0032
510.592	0.0011
510.943	0.0025
511.294	0.0022
511.645	0.0021
511.996	0
512.347	0.0012
512.698	0.0002
513.049	0.0015
513.399	0.0024
513.75	0.0007
514.101	0.0031
514.451	0.0017
514.802	0.0045
515.152	0.0017
515.503	0.004
515.853	0.0046
516.203	0.004
516.554	0.004
516.904	0.0053
517.254	0.0083
517.604	0.0082
517.955	0.0054
518.305	0.0054
518.655	0.0018
519.005	0.004
519.355	0.0043
519.705	0.0058
520.055	0.0035
520.404	-0.0009
520.754	-0.0011
521.104	0.0001
521.454	0.0024
521.803	0.0032
522.153	0.0024
522.502	-0.0006
522.852	-0.0024
523.201	-0.0028
523.551	0.0005
523.9	0.0017
524.249	0.0027
524.599	0.0031
524.948	0.0033
525.297	0.0014
525.646	0.0016
525.995	-0
526.344	0.0013
526.694	0.0019
527.042	0.0039
527.391	0.0052
527.74	0.0011
528.089	0.0017
528.438	0.0034
528.787	0.0082
529.135	0.007
529.484	0.0009
529.833	0.0008
530.181	0.0017
530.53	0.0046
530.878	0.0031
531.227	0.003
531.575	0.0026
531.923	0.0001
532.271	-0.0021
532.62	-0.0022
532.968	0.0026
533.316	0.0062
533.664	0.0077
534.012	0.0046
534.36	0.0011
534.708	0.0009
535.056	0.0035
535.404	0.004
535.752	0.0034
536.1	0.0015
536.447	0.0019
536.795	0.0014
537.143	0.0026
537.49	0.0032
537.838	0.0039
538.185	0.0018
538.533	-0.0009
538.88	-0.0025
539.228	-0.0018
539.575	0.0001
539.922	-0.0015
540.269	-0.0015
540.617	-0.0014
540.964	0.0007
541.311	-0.0005
541.658	-0.0024
542.005	-0.0027
542.352	-0.0041
542.699	-0.0042
543.045	-0.0061
543.392	-0.0029
543.739	-0.0032
544.086	0.0002
544.432	-0.0027
544.779	0.0019
545.126	-0.0009
545.472	0.0004
545.819	-0.0019
546.165	-0.0002
546.512	0.0013
546.858	0.0031
547.204	0.0027
547.55	0.0022
547.897	0.0014
548.243	0.0011
548.589	0.0005
548.935	-0.002
549.281	0.001
549.627	0.0021
549.973	0.0035
550.319	0.0016
550.665	0.0026
551.01	0.0025
551.356	0.0022
551.702	0.0012
552.048	0.0008
552.393	0.0002
552.739	-0.0018
553.084	0.0008
553.43	-0.0005
553.775	-0.0001
554.12	-0.0017
554.466	-0.0017
554.811	-0.0015
555.156	-0.0021
555.502	-0.0009
555.847	-0.0009
556.192	-0.003
556.537	-0.0031
556.882	-0.0034
557.227	-0.0011
557.572	-0.0014
557.917	0.0004
558.261	0.0021
558.606	0.0006
558.951	-0.0041
559.295	-0.0075
559.64	-0.0053
559.985	-0.0009
560.329	-0.0018
560.674	-0.0038
561.018	-0.0035
561.363	-0.0035
561.707	-0.0038
562.051	0.0001
562.395	0.0039
562.74	0.0049
563.084	0.0005
563.428	-0.001
563.772	-0.0002
564.116	-0.0008
564.46	-0.0017
564.804	-0.0022
565.148	-0.0043
565.492	-0.0055
565.835	-0.0048
566.179	-0.0024
566.523	0.0005
566.866	0.0009
567.21	0.0006
567.554	-0.0001
567.897	-0.0012
568.24	-0.0025
568.584	-0.003
568.927	-0.0034
569.271	-0.0023
569.614	-0.0025
569.957	-0.0018
570.3	-0.0024
570.643	-0.0004
570.986	0.0013
571.329	0.0033
571.672	0.0014
572.015	-0.0008
572.358	-0.0018
572.701	-0.0017
573.044	-0.0011
573.387	-0.0021
573.729	-0.0007
574.072	0.0011
574.414	-0.0007
574.757	0.0002
575.099	-0.0037
575.442	-0.0053
575.784	-0.0059
576.127	-0.0022
576.469	0.0001
576.811	-0.0036
577.153	-0.0024
577.496	-0.0008
577.838	0.003
578.18	0.0002
578.522	-0.0013
578.864	-0.0034
579.206	0.0005
579.548	0.0016
579.889	-0
580.231	-0.0018
580.573	0.0015
580.915	0.0008
581.256	-0.0054
581.598	-0.0084
581.939	-0.0088
582.281	-0.0006
582.622	-0.0011
582.964	-0.0023
583.305	-0.0046
583.646	-0.0049
583.988	0.0035
584.329	0.0048
584.67	0.0002
585.011	-0.0047
585.352	-0.0102
585.693	-0.0088
586.034	-0.01
586.375	-0.0103
586.716	-0.0044
587.057	-0.0031
587.398	0.0005
587.738	0.0002
588.079	-0.0019
588.42	-0.0036
588.76	-0.0058
589.101	-0.0046
589.441	-0.0029
589.782	-0.0019
590.122	0.0006
590.463	0.0008
590.803	-0.0028
591.143	-0.0043
591.483	-0.0043
591.823	-0.004
592.164	-0.0056
592.504	-0.0053
592.844	-0.0031
593.184	-0.0028
593.523	-0.0031
593.863	-0.0023
594.203	-0.0029
594.543	-0.0008
594.883	-0.0041
595.222	-0.0032
595.562	0.0006
595.901	-0.0003
596.241	-0.0011
596.58	-0.0041
596.92	-0.0043
597.259	-0.0048
597.599	-0.0054
597.938	-0.0006
598.277	0.0017
598.616	-0.0019
598.955	-0.0042
599.295	-0.0031
599.634	-0.0017
599.973	0.0002
600.312	-0.0037
600.65	-0.0062
600.989	-0.0104
601.328	-0.0061
601.667	0.0037
602.005	0.0027
602.344	-0.0022
602.683	-0.0066
603.021	-0.0047
603.36	-0.0063
603.698	-0.0072
604.037	-0.0083
604.375	-0.0064
604.713	-0.0063
605.052	-0.0073
605.39	-0.0045
605.728	-0.0058
606.066	0.004
606.404	0.0027
606.742	0.0003
607.08	-0.0028
607.418	-0.0043
607.756	-0.0003
608.094	-0
608.431	-0.0001
608.769	-0.0005
609.107	-0.0059
609.444	-0.0033
609.782	-0.0049
610.12	-0.0004
610.457	-0.0006
610.794	-0.0019
611.132	-0.0048
611.469	-0.0063
611.806	-0.006
612.144	-0.0104
612.481	-0.0094
612.818	-0.0066
613.155	0.0004
613.492	-0.0007
613.829	-0.0012
614.166	-0.0013
614.503	0.0004
614.84	-0.0046
615.176	-0.0046
615.513	-0.0025
615.85	0.0011
616.187	-0.0002
616.523	-0.0033
616.86	-0.0053
617.196	-0.0036
617.533	0.0007
617.869	0.0009
618.205	0.0007
618.542	-0.0021
618.878	-0.0037
619.214	-0.0035
619.55	-0.0027
619.886	0.0006
620.222	-0.0028
620.558	-0.0049
620.894	-0.009
621.23	-0.0095
621.566	-0.0097
621.902	-0.0059
622.238	-0.0063
622.573	0.0008
622.909	-0.0019
623.244	-0.0019
623.58	-0.0102
623.916	-0.0102
624.251	-0.0083
624.586	-0.0024
624.922	-0.0016
625.257	-0.0034
625.592	-0.0093
625.927	-0.0078
626.263	-0.007
626.598	-0.0033
626.933	-0.0047
627.268	-0.0029
627.603	-0.0029
627.938	-0.0063
628.272	-0.0046
628.607	-0.0022
628.942	0.0002
629.277	-0.0017
629.611	-0.0042
629.946	-0.0064
630.281	-0.0078
630.615	-0.0092
630.949	-0.0054
631.284	-0.0027
631.618	0.0003
631.953	0.002
632.287	-0.0022
632.621	-0.0069
632.955	-0.0094
633.289	-0.0079
633.623	-0.0081
633.957	-0.0089
634.291	-0.0105
634.625	-0.006
634.959	-0.0083
635.293	-0.0048
635.627	-0.0029
635.96	0.0008
636.294	0.0033
636.627	0.0001
636.961	0.0008
637.294	-0.0036
637.628	-0.0055
637.961	-0.0055
638.295	-0.0067
638.628	-0.0037
638.961	-0.0055
639.294	-0.002
639.628	-0.0045
639.961	-0.0068
640.294	-0.0126
640.627	-0.0148
640.96	-0.0111
641.293	-0.0117
641.625	-0.0047
641.958	-0.0074
642.291	-0.0033
642.624	-0.009
642.956	-0.008
643.289	-0.0057
643.621	-0.0025
643.954	-0.0056
644.286	-0.0076
644.619	-0.0095
644.951	-0.0032
645.283	-0.0027
645.616	-0.0012
645.948	-0.0021
646.28	-0.0007
646.612	-0.0009
646.944	-0.0019
647.276	-0.0034
647.608	-0.0061
647.94	-0.0081
648.272	-0.0074
648.603	-0.0053
648.935	0.0026
649.267	-0.001
649.598	-0.003
649.93	-0.0105
650.261	-0.0114
650.593	-0.0123
650.924	-0.0116
651.256	-0.0082
651.587	-0.0019
651.918	-0.0031
652.25	-0.0027
652.581	-0.0072
652.912	-0.003
653.243	-0.0013
653.574	0.0029
653.905	-0.0007
654.236	-0.0058
654.567	-0.0066
654.897	-0.006
655.228	-0.0036
655.559	-0.0048
655.89	-0.0002
656.22	-0.0019
656.551	-0.0045
656.881	-0.0085
657.212	-0.0056
657.542	-0.0034
657.872	-0.0051
658.203	-0.008
658.533	0.0053
658.863	0.0144
659.193	-0.0021
659.523	-0.0078
659.853	-0.0252
660.183	-0.0169
660.513	-0.0143
660.843	-0.0077
661.173	-0.0071
661.503	-0.0035
661.833	-0.0047
662.162	-0.0025
662.492	-0.0038
662.822	-0.0022
663.151	-0.0057
663.481	-0.0104
663.81	-0.0105
664.139	-0.0075
664.469	0.0002
664.798	-0.0062
665.127	-0.0069
665.456	-0.0114
665.785	-0.0042
666.114	-0.003
666.443	-0.0011
666.772	-0.0043
667.101	-0.005
667.43	-0.0049
667.759	-0.0043
668.088	-0.0061
668.416	-0.0114
668.745	-0.0128
669.074	-0.0126
669.402	-0.0072
669.731	-0.0079
670.059	-0.0018
670.388	-0.0069
670.716	-0.0036
671.044	-0.0082
671.372	-0.0047
671.701	-0.0062
672.029	-0.0059
672.357	-0.006
672.685	-0.0071
673.013	-0.0077
673.341	-0.0069
673.669	-0.0022
673.996	0.0005
674.324	0.0034
674.652	-0.0002
674.98	-0.0033
675.307	-0.0086
675.635	-0.0091
675.962	-0.0078
676.29	-0.0087
676.617	-0.0085
676.945	-0.008
677.272	-0.0069
677.599	-0.0093
677.926	-0.0069
678.253	-0.0064
678.581	-0.0083
678.908	-0.0121
679.235	-0.0084
679.561	-0.0091
679.888	-0.0126
680.215	-0.0149
680.542	-0.0098
680.869	-0.0062
681.195	-0.0106
681.522	-0.0134
681.849	-0.0123
682.175	-0.0092
682.502	-0.0098
682.828	-0.0125
683.154	-0.0131
683.481	-0.0118
683.807	-0.0115
684.133	-0.0096
684.459	-0.0082
684.785	-0.0044
685.111	-0.0033
685.437	-0.0015
685.763	-0.0015
686.089	-0.0021
686.415	-0.0044
686.741	-0.0049
687.067	-0.0023
687.392	-0.0016
687.718	-0.0013
688.043	-0.0062
688.369	-0.0043
688.694	-0.0073
689.02	-0.0097
689.345	-0.0091
689.67	-0.0063
689.996	0.0008
690.321	-0.0001
690.646	-0.0025
690.971	-0.003
691.296	-0.0086
691.621	-0.0086
691.946	-0.0094
692.271	-0.0042
692.596	-0.0014
692.921	-0.0039
693.245	-0.0059
693.57	-0.0081
693.895	-0.0085
694.219	-0.0084
694.544	-0.0049
694.868	-0.003
695.193	-0.0012
695.517	-0.0014
695.841	-0.0037
696.166	-0.0056
696.49	-0.0112
696.814	-0.0087
697.138	-0.0088
697.462	-0.0027
697.786	-0.0049
698.11	-0.0037
698.434	-0.0047
698.758	-0.0083
699.081	-0.0096
699.405	-0.0117
699.729	0.001
700.052	0.006
700.376	0.0018
700.7	-0.0059
701.023	-0.0129
701.346	-0.0088
701.67	-0.007
701.993	-0.0015
702.316	-0.0062
702.639	-0.0081
702.963	-0.0103
703.286	-0.0092
703.609	-0.0068
703.932	-0.0079
704.255	-0.0046
704.578	-0.0067
704.9	-0.0029
705.223	-0.0052
705.546	-0.0007
705.868	-0.0017
706.191	-0.0041
706.514	-0.0061
706.836	-0.008
707.159	-0.0046
707.481	-0.0021
707.803	-0.0036
708.126	-0.006
708.448	-0.01
708.77	-0.0128
709.092	-0.0108
709.414	-0.0096
709.736	-0.0028
710.058	-0.0023
710.38	-0.0037
710.702	-0.0051
711.024	-0.0078
711.345	-0.0073
711.667	-0.0086
711.989	-0.0075
712.31	-0.0079
712.632	-0.0113
712.953	-0.0104
713.275	-0.0129
713.596	-0.0073
713.917	-0.0088
714.239	-0.0051
714.56	-0.0059
714.881	-0.0025
715.202	-0.001
715.523	-0.0033
715.844	-0.0043
716.165	-0.0058
716.486	-0.0033
716.807	-0.0024
717.128	-0.0011
717.448	-0.0034
717.769	-0.0004
718.09	0.0002
718.41	-0.0013
718.731	-0.0071
719.051	-0.0086
719.372	-0.0044
719.692	-0.0029
720.012	0.0048
720.332	-0.0012
720.653	0.0014
720.973	-0.0062
721.293	-0.004
721.613	-0.0084
721.933	-0.0063
722.253	-0.0036
722.573	-0.0001
722.892	-0.0011
723.212	-0.0067
723.532	-0.0076
723.851	-0.0096
724.171	-0.0079
724.491	-0.009
724.81	-0.0068
725.129	-0.0034
725.449	-0.0022
725.768	-0.0014
726.087	0.0032
726.407	0.0012
726.726	0.0014
727.045	-0.0047
727.364	-0.0027
727.683	-0.0069
728.002	-0.0106
728.321	-0.0128
728.64	-0.0124
728.958	-0.0104
729.277	-0.0078
729.596	-0.0083
729.914	-0.0072
730.233	-0.0107
730.551	-0.0062
730.87	-0.0069
731.188	-0.0036
731.507	-0.0046
731.825	-0.0018
732.143	-0.0037
732.461	-0.0058
732.779	-0.0034
733.097	-0.0052
733.415	-0.0031
733.733	-0.0094
734.051	-0.0105
734.369	-0.0108
734.687	-0.0082
735.005	-0.0064
735.322	-0.0092
735.64	-0.0094
735.957	-0.0097
736.275	-0.0096
736.592	-0.0123
736.91	-0.0069
737.227	-0.0028
737.544	0
737.862	-0.0031
738.179	-0.0047
738.496	-0.0074
738.813	-0.0051
739.13	-0.0074
739.447	-0.006
739.764	-0.0036
740.081	-0.0007
740.398	-0.0049
740.714	-0.013
741.031	-0.0182
741.348	-0.0131
741.664	-0.0072
741.981	-0.0008
742.297	-0.0017
742.614	-0.0036
742.93	-0.0067
743.246	-0.0122
743.563	-0.0166
743.879	-0.0156
744.195	-0.0107
744.511	-0.0074
744.827	-0.0067
745.143	-0.0044
745.459	0.0024
745.775	-0.0014
746.091	-0.0045
746.406	-0.0126
746.722	-0.0074
747.038	-0.0027
747.353	-0.0013
747.669	-0.0013
747.984	-0.0031
748.3	0.0017
748.615	-0.0021
748.93	-0.0087
749.246	-0.0119
749.561	-0.013
749.876	-0.0106
750.191	-0.0136
750.506	-0.0067
750.821	-0.0012
751.136	0.001
751.451	-0.002
751.766	-0.0093
752.08	-0.005
752.395	-0.0025
752.71	0.0007
753.024	-0.0017
753.339	-0.0084
753.653	-0.008
753.968	-0.0098
754.282	-0.0109
754.596	-0.0138
754.911	-0.0145
755.225	-0.0116
755.539	-0.0147
755.853	-0.0137
756.167	-0.0157
756.481	-0.0064
756.795	-0.003
757.109	-0.0012
757.423	-0.0045
757.736	-0.0063
758.05	-0.0109
758.364	-0.0095
758.677	-0.0084
758.991	-0.0048
759.304	-0.0042
759.618	-0.0061
759.931	-0.0062
760.244	-0.0065
760.558	-0.0078
760.871	-0.0077
761.184	-0.0136
761.497	-0.018
761.81	-0.0175
762.123	-0.0108
762.436	-0.0066
762.749	-0.0093
763.062	-0.0052
763.374	-0.0031
763.687	0.0017
764	-0.002
764.312	-0.0041
764.625	-0.0087
764.937	-0.011
765.25	-0.0112
765.562	-0.0096
765.874	-0.005
766.186	-0.0059
766.499	-0.0089
766.811	-0.0118
767.123	-0.0077
767.435	-0.004
767.747	-0.0012
768.059	-0.003
768.37	-0.0016
768.682	-0.0083
768.994	-0.0107
769.306	-0.0111
769.617	-0.0083
769.929	-0.0035
770.24	-0.0044
770.552	-0.0045
770.863	-0.0112
771.174	-0.0125
771.486	-0.0125
771.797	-0.0095
772.108	-0.0124
772.419	-0.0107
772.73	-0.0105
773.041	-0.0089
773.352	-0.009
773.663	-0.0081
773.974	-0.0038
774.285	-0.0036
774.595	-0.007
774.906	-0.009
775.217	-0.0109
775.527	-0.0115
775.838	-0.0147
776.148	-0.0142
776.458	-0.0173
776.769	-0.019
777.079	-0.0165
777.389	-0.0129
777.699	-0.0099
778.009	-0.0079
778.319	-0.0026
778.629	0.0004
778.939	-0.0024
779.249	-0.0035
779.559	-0.0065
779.869	-0.0107
780.178	-0.0167
780.488	-0.0159
780.798	-0.0197
781.107	-0.0162
781.417	-0.0152
781.726	-0.0095
782.035	-0.0076
782.345	-0.0106
782.654	-0.0087
782.963	-0.0123
783.272	-0.0086
783.581	-0.0056
783.89	0.0035
784.199	0.0026
784.508	-0.0029
784.817	-0.0121
785.126	-0.0139
785.434	-0.0119
785.743	-0.0072
786.052	-0.0078
786.36	-0.0093
786.669	-0.0137
786.977	-0.0174
787.285	-0.0162
787.594	-0.0136
787.902	-0.0082
788.21	-0.0116
788.518	-0.0101
788.826	-0.0072
789.135	-0.0058
789.442	-0.0105
789.75	-0.0147
790.058	-0.0157
790.366	-0.0116
790.674	-0.0119
790.981	-0.0044
791.289	-0.0047
791.597	-0.0012
791.904	-0.0038
792.212	-0.002
792.519	-0.0062
792.826	-0.0052
793.134	-0.0076
793.441	-0.0065
793.748	-0.0102
794.055	-0.008
794.362	-0.0087
794.669	-0.0099
794.976	-0.0133
795.283	-0.0099
795.59	-0.0113
795.897	-0.0125
796.203	-0.0134
796.51	-0.0109
796.817	-0.0063
797.123	-0.0101
797.43	-0.0117
797.736	-0.0135
798.042	-0.0129
798.349	-0.0084
798.655	-0.0037
798.961	-0.0021
799.267	-0.0057
799.573	-0.0121
799.879	-0.0145
800.185	-0.0084
800.491	-0.0061
800.797	-0.0055
801.103	-0.0069
801.408	-0.0059
801.714	-0.0019
802.02	-0.0032
802.325	-0.0019
802.631	-0.0069
802.936	-0.0056
803.242	-0.001
803.547	-0.0029
803.852	-0.008
804.157	-0.012
804.462	-0.0063
804.768	-0.0036
805.073	-0.0059
805.378	-0.0046
805.682	-0.0019
805.987	-0.004
806.292	-0.0073
806.597	-0.0111
806.902	-0.0092
807.206	-0.0154
807.511	-0.0141
807.815	-0.0097
808.12	-0.0084
808.424	-0.0071
808.728	-0.0162
809.033	-0.0062
809.337	-0.0115
809.641	-0.009
809.945	-0.0111
810.249	-0.0093
810.553	-0.0112
810.857	-0.0196
811.161	-0.0216
811.465	-0.02
811.768	-0.0117
812.072	-0.0134
812.376	-0.0099
812.679	-0.0103
812.983	-0.0004
813.286	-0.0072
813.59	-0.0034
813.893	-0.0029
814.196	0.0014
814.499	-0.0022
814.803	-0.0101
815.106	-0.0028
815.409	-0.0004
815.712	0.0005
816.015	-0.0119
816.318	-0.0134
816.62	-0.0089
816.923	-0.0001
817.226	-0.0006
817.528	-0.0034
817.831	-0.0073
818.133	-0.0068
818.436	-0.0085
818.738	-0.0065
819.041	-0.0086
819.343	-0.0056
819.645	-0.0096
819.947	-0.0075
820.249	-0.0109
820.551	-0.0093
820.853	-0.0147
821.155	-0.0105
821.457	-0.0147
821.759	-0.0121
822.061	-0.0115
822.362	-0.0111
822.664	-0.0033
822.966	-0.0054
823.267	-0
823.569	-0.0085
823.87	-0.0093
824.171	-0.0149
824.473	-0.0135
824.774	-0.0095
825.075	-0.003
825.376	-0.0003
825.677	-0.002
825.978	-0.0087
826.279	-0.0102
826.58	-0.0123
826.881	-0.0039
827.181	-0.0054
827.482	0.0037
827.783	0.002
828.083	-0.0011
828.384	-0.0113
828.684	-0.0099
828.985	-0.005
829.285	-0.0021
829.585	-0.0035
829.885	-0.0032
830.185	-0.0068
830.486	-0.0067
830.786	-0.0106
831.086	-0.0084
831.385	-0.0144
831.685	-0.0092
831.985	-0.0044
832.285	-0.0022
832.585	0.0037
832.884	0.0049
833.184	-0.0029
833.483	-0.002
833.783	-0.0109
834.082	-0.0055
834.381	-0.0171
834.681	-0.017
834.98	-0.0104
835.279	-0.0129
835.578	-0.0056
835.877	-0.0111
836.176	-0.0043
836.475	-0.0012
836.774	-0.0045
837.072	-0.01
837.371	-0.0155
837.67	-0.0105
837.968	-0.0116
838.267	-0.0202
838.565	-0.0206
838.864	-0.0215
839.162	-0.009
839.46	-0.0108
839.759	-0.0129
840.057	-0.0125
840.355	-0.0119
840.653	0.0012
840.951	-0.0034
841.249	0.0047
841.547	-0.0135
841.845	-0.0221
842.142	-0.0154
842.44	-0.0176
842.738	-0.0101
843.035	-0.0368
843.333	-0.0401
843.63	-0.0365
843.928	-0.0134
844.225	0.0049
844.522	0.0119
844.82	0.0083
845.117	0.0032
845.414	-0.0084
845.711	-0.0126
846.008	-0.0079
846.305	-0.007
846.602	-0.0136
846.898	-0.0092
847.195	-0.0197
847.492	-0.0155
847.788	-0.0359
848.085	-0.0352
848.382	-0.0212
848.678	-0.0157
848.974	-0.0008
849.271	-0.015
849.567	-0.0008
849.863	-0.0049
850.159	-0.0159
850.455	-0.0144
850.751	-0.0032
851.047	0.0172
851.343	0.0143
851.639	-0.0037
851.935	0.0029
852.23	-0.0052
852.526	0.0015
852.822	-0.0054
853.117	-0.0072
853.413	-0.0174
853.708	-0.0314
854.003	-0.0235
854.299	-0.0122
854.594	-0.0008
854.889	0.0102
855.184	0.0022
855.479	-0.0004
855.774	-0.0131
856.069	-0.0101
856.364	-0.0045
856.659	-0.0169
856.954	-0.0184
857.248	-0.0384
857.543	-0.0251
857.837	-0.0199
858.132	-0.0066
858.426	0.0058
858.721	-0.0032
859.015	-0.0033
859.309	-0.0169
859.604	-0.0008
859.898	0.0115
860.192	-0.0091
860.486	-0.0074
860.78	-0.0107
861.074	0.0083
861.367	-0.0016
861.661	-0.0078
861.955	0.0035
862.248	0.0331
862.542	0.0462
862.836	0.0406
863.129	-0.0058
863.422	-0.0301
863.716	-0.017
864.009	-0.0178
864.302	-0.0346
864.595	-0.0441
864.889	-0.0289
865.182	0.0166
865.475	0.0158
865.767	0.0036
866.06	-0.0272
866.353	-0.0294
866.646	-0.0334
866.938	-0.0308
867.231	-0.0203
867.524	0.0036
867.816	0.0037
868.109	-0.0068
868.401	-0.02
868.693	-0.0155
868.985	0.0033
869.278	0.0144
869.57	0.0204
869.862	0.0039
870.154	-0.0002
870.446	-0.001
870.738	-0.0008
871.029	-0.0024
871.321	0.009
871.613	0.0027
871.904	0.0103
872.196	-0.0214
872.487	-0.0221
872.779	-0.0275
873.07	-0.0225
873.362	-0.0225
873.653	-0.0396
873.944	-0.0559
874.235	-0.0323
874.526	-0.0036
874.817	0.0125
875.108	-0.0047
875.399	-0.0122
875.69	-0.0166
875.981	-0.0263
876.271	-0.0343
876.562	-0.0211
876.853	0.0053
877.143	0.0117
877.434	0.0002
877.724	-0.0181
878.014	-0.0182
878.305	-0.0105
878.595	-0.0275
878.885	-0.0314
879.175	-0.0204
879.465	-0.0046
879.755	0.0117
880.045	0.015
880.335	0.0278
880.624	0.0193
880.914	0.0193
