Data from 8SS04MI_072217_1b_Absorbance_19-02-18-606.txt Node
Date: Fri Jul 28 19:02:18 MDT 2017
User: Tank Lab
Spectrometer: FLMS01220
Trigger mode: 0
Integration Time (sec): 1.000000E-1
Scans to average: 10
Electric dark correction enabled: true
Nonlinearity correction enabled: false
Boxcar width: 1
XAxis mode: Wavelengths
Number of Pixels in Spectrum: 2048
>>>>>Begin Spectral Data<<<<<
179.47	-0
179.856	-0
180.241	-0
180.626	-0
181.011	0.3146
181.396	-0
181.781	0.2947
182.166	-0.425
182.551	-0
182.936	-0
183.321	-0
183.706	-0
184.091	-0.4759
184.476	-0.4243
184.86	-0
185.245	-0.4635
185.63	0.2441
186.015	0.3254
186.399	0.4903
186.784	-0
187.169	1.1066
187.553	0.0433
187.938	0.4462
188.322	-0.0031
188.707	-0.0326
189.091	0.035
189.475	0.0693
189.86	0.1041
190.244	0.1012
190.629	0.1136
191.013	0.1385
191.397	0.1979
191.781	0.2397
192.165	0.2581
192.55	0.2596
192.934	0.2857
193.318	0.3083
193.702	0.326
194.086	0.3272
194.47	0.3215
194.854	0.3214
195.238	0.3158
195.622	0.3251
196.006	0.3313
196.389	0.3324
196.773	0.33
197.157	0.3295
197.541	0.3371
197.924	0.3358
198.308	0.3432
198.692	0.3373
199.075	0.3387
199.459	0.3242
199.843	0.3237
200.226	0.3209
200.61	0.3249
200.993	0.3205
201.376	0.3171
201.76	0.3065
202.143	0.3053
202.527	0.2991
202.91	0.2987
203.293	0.2939
203.676	0.2941
204.059	0.2977
204.443	0.2973
204.826	0.2999
205.209	0.3003
205.592	0.3017
205.975	0.298
206.358	0.2946
206.741	0.2896
207.124	0.2936
207.507	0.2882
207.89	0.2933
208.273	0.2885
208.655	0.2879
209.038	0.2829
209.421	0.2779
209.804	0.2809
210.186	0.2825
210.569	0.2835
210.951	0.2828
211.334	0.2791
211.717	0.2776
212.099	0.2699
212.482	0.2683
212.864	0.2654
213.246	0.2677
213.629	0.2627
214.011	0.2623
214.393	0.258
214.776	0.2568
215.158	0.255
215.54	0.2549
215.922	0.2533
216.305	0.2481
216.687	0.246
217.069	0.2405
217.451	0.2405
217.833	0.2368
218.215	0.2365
218.597	0.233
218.979	0.2277
219.361	0.2235
219.742	0.2211
220.124	0.2205
220.506	0.2195
220.888	0.2153
221.27	0.2124
221.651	0.2091
222.033	0.208
222.415	0.2042
222.796	0.2025
223.178	0.1996
223.559	0.1972
223.941	0.1928
224.322	0.1881
224.704	0.1854
225.085	0.1849
225.466	0.1824
225.848	0.1812
226.229	0.1756
226.61	0.1744
226.992	0.1714
227.373	0.1708
227.754	0.1683
228.135	0.1655
228.516	0.165
228.897	0.1634
229.278	0.1621
229.659	0.1592
230.04	0.1568
230.421	0.1552
230.802	0.1525
231.183	0.1528
231.564	0.1512
231.944	0.1504
232.325	0.1468
232.706	0.1445
233.087	0.1429
233.467	0.142
233.848	0.1413
234.229	0.1415
234.609	0.1419
234.99	0.1401
235.37	0.1381
235.751	0.1354
236.131	0.1341
236.511	0.135
236.892	0.1345
237.272	0.1337
237.652	0.1306
238.033	0.1297
238.413	0.1294
238.793	0.1284
239.173	0.1277
239.553	0.1278
239.933	0.128
240.313	0.1279
240.694	0.1239
241.074	0.1214
241.453	0.119
241.833	0.1214
242.213	0.1204
242.593	0.1182
242.973	0.1154
243.353	0.1149
243.732	0.1161
244.112	0.1172
244.492	0.1172
244.872	0.1167
245.251	0.1147
245.631	0.1141
246.01	0.1131
246.39	0.1116
246.769	0.1111
247.149	0.1105
247.528	0.1128
247.908	0.1131
248.287	0.1127
248.666	0.1107
249.045	0.1088
249.425	0.1088
249.804	0.1082
250.183	0.109
250.562	0.1077
250.941	0.1072
251.32	0.1062
251.699	0.1064
252.078	0.1067
252.457	0.1072
252.836	0.1075
253.215	0.1077
253.594	0.1066
253.973	0.1067
254.352	0.1054
254.731	0.1051
255.109	0.1039
255.488	0.1041
255.867	0.1038
256.245	0.1018
256.624	0.1016
257.002	0.1009
257.381	0.102
257.759	0.1004
258.138	0.1005
258.516	0.1002
258.895	0.1017
259.273	0.1006
259.651	0.0998
260.03	0.0981
260.408	0.0982
260.786	0.0981
261.164	0.0983
261.542	0.0977
261.921	0.0977
262.299	0.0972
262.677	0.0981
263.055	0.0973
263.433	0.0951
263.811	0.0937
264.188	0.0925
264.566	0.0942
264.944	0.0927
265.322	0.0933
265.7	0.0934
266.077	0.0942
266.455	0.0935
266.833	0.092
267.21	0.0918
267.588	0.0932
267.966	0.0936
268.343	0.0934
268.721	0.0917
269.098	0.0906
269.475	0.0894
269.853	0.0891
270.23	0.0891
270.607	0.0889
270.985	0.0887
271.362	0.0864
271.739	0.0853
272.116	0.0844
272.494	0.0857
272.871	0.087
273.248	0.0873
273.625	0.086
274.002	0.0829
274.379	0.0815
274.756	0.0819
275.132	0.0832
275.509	0.0832
275.886	0.0821
276.263	0.0814
276.64	0.0805
277.016	0.0795
277.393	0.0784
277.77	0.076
278.146	0.0766
278.523	0.0762
278.899	0.0767
279.276	0.0762
279.652	0.0761
280.029	0.076
280.405	0.0743
280.782	0.0732
281.158	0.0731
281.534	0.0725
281.91	0.0722
282.287	0.0707
282.663	0.0735
283.039	0.075
283.415	0.0753
283.791	0.0729
284.167	0.071
284.543	0.0722
284.919	0.0716
285.295	0.0715
285.671	0.0695
286.047	0.0679
286.423	0.0658
286.799	0.0669
287.174	0.0675
287.55	0.0679
287.926	0.0663
288.301	0.0672
288.677	0.067
289.053	0.0666
289.428	0.0653
289.804	0.0651
290.179	0.0653
290.555	0.0657
290.93	0.0652
291.305	0.0639
291.681	0.0644
292.056	0.0656
292.431	0.0651
292.806	0.065
293.182	0.062
293.557	0.0627
293.932	0.0606
294.307	0.0606
294.682	0.0601
295.057	0.061
295.432	0.0612
295.807	0.0606
296.182	0.0601
296.557	0.0614
296.932	0.0613
297.306	0.0615
297.681	0.0595
298.056	0.0597
298.43	0.0579
298.805	0.0559
299.18	0.0539
299.554	0.053
299.929	0.0554
300.303	0.0562
300.678	0.0564
301.052	0.0569
301.427	0.0555
301.801	0.0553
302.175	0.054
302.55	0.0546
302.924	0.0534
303.298	0.0522
303.672	0.0528
304.046	0.0518
304.421	0.0525
304.795	0.0522
305.169	0.0542
305.543	0.0525
305.917	0.0511
306.291	0.0507
306.664	0.0516
307.038	0.051
307.412	0.05
307.786	0.0486
308.16	0.0486
308.533	0.0488
308.907	0.0491
309.281	0.0501
309.654	0.0495
310.028	0.049
310.401	0.0474
310.775	0.0466
311.148	0.048
311.522	0.0477
311.895	0.0474
312.268	0.0467
312.642	0.046
313.015	0.0469
313.388	0.0458
313.761	0.0467
314.135	0.0465
314.508	0.0473
314.881	0.0454
315.254	0.0451
315.627	0.0443
316	0.0455
316.373	0.0436
316.746	0.0437
317.118	0.0428
317.491	0.0436
317.864	0.0438
318.237	0.0437
318.61	0.0431
318.982	0.0415
319.355	0.0409
319.727	0.0413
320.1	0.0423
320.473	0.0412
320.845	0.0405
321.218	0.0387
321.59	0.0393
321.962	0.0397
322.335	0.0394
322.707	0.0403
323.079	0.0398
323.452	0.041
323.824	0.0411
324.196	0.0404
324.568	0.0381
324.94	0.0369
325.312	0.0381
325.684	0.0398
326.056	0.0379
326.428	0.0356
326.8	0.033
327.172	0.0347
327.544	0.0334
327.915	0.033
328.287	0.0325
328.659	0.035
329.031	0.0364
329.402	0.0346
329.774	0.0338
330.145	0.0327
330.517	0.0328
330.888	0.0311
331.26	0.0307
331.631	0.0315
332.003	0.0319
332.374	0.0326
332.745	0.0321
333.117	0.0326
333.488	0.0312
333.859	0.0317
334.23	0.031
334.601	0.0316
334.972	0.0323
335.343	0.0323
335.714	0.0311
336.085	0.0287
336.456	0.0266
336.827	0.027
337.198	0.029
337.569	0.0292
337.94	0.0296
338.31	0.0283
338.681	0.0293
339.052	0.0297
339.422	0.0301
339.793	0.0288
340.164	0.027
340.534	0.0257
340.905	0.0251
341.275	0.0247
341.645	0.0242
342.016	0.0256
342.386	0.0258
342.756	0.0285
343.127	0.0273
343.497	0.0269
343.867	0.0241
344.237	0.0247
344.607	0.0245
344.977	0.0249
345.347	0.0255
345.717	0.0254
346.087	0.0251
346.457	0.0243
346.827	0.0254
347.197	0.025
347.567	0.0245
347.936	0.0245
348.306	0.0256
348.676	0.0268
349.046	0.0258
349.415	0.025
349.785	0.0245
350.154	0.0236
350.524	0.024
350.893	0.0224
351.263	0.0239
351.632	0.0222
352.001	0.0214
352.371	0.0197
352.74	0.0193
353.109	0.0212
353.478	0.0223
353.847	0.0222
354.217	0.0228
354.586	0.0207
354.955	0.0229
355.324	0.0209
355.693	0.0232
356.062	0.0213
356.43	0.0215
356.799	0.019
357.168	0.0167
357.537	0.0163
357.906	0.0176
358.274	0.0195
358.643	0.0194
359.011	0.0176
359.38	0.0182
359.749	0.0178
360.117	0.0185
360.486	0.0183
360.854	0.0175
361.222	0.0162
361.591	0.0162
361.959	0.0148
362.327	0.0173
362.695	0.0163
363.064	0.0197
363.432	0.0179
363.8	0.0163
364.168	0.0139
364.536	0.0152
364.904	0.0163
365.272	0.0177
365.64	0.017
366.008	0.0177
366.376	0.0172
366.743	0.0165
367.111	0.0163
367.479	0.0151
367.847	0.0164
368.214	0.018
368.582	0.0181
368.949	0.0165
369.317	0.0132
369.684	0.0122
370.052	0.0118
370.419	0.0126
370.787	0.0144
371.154	0.0163
371.521	0.0182
371.889	0.0163
372.256	0.0158
372.623	0.0138
372.99	0.0131
373.357	0.0123
373.724	0.0132
374.091	0.016
374.458	0.0153
374.825	0.0145
375.192	0.013
375.559	0.0125
375.926	0.0129
376.293	0.0131
376.659	0.0142
377.026	0.0127
377.393	0.0122
377.759	0.0113
378.126	0.0124
378.492	0.0133
378.859	0.0119
379.225	0.0105
379.592	0.0102
379.958	0.0116
380.325	0.0111
380.691	0.01
381.057	0.0083
381.423	0.009
381.79	0.0084
382.156	0.0082
382.522	0.0091
382.888	0.011
383.254	0.0138
383.62	0.0137
383.986	0.0141
384.352	0.0109
384.718	0.0092
385.084	0.01
385.449	0.01
385.815	0.0125
386.181	0.012
386.547	0.0146
386.912	0.0123
387.278	0.0101
387.643	0.0085
388.009	0.0105
388.374	0.0116
388.74	0.0125
389.105	0.0114
389.471	0.0103
389.836	0.0109
390.201	0.0111
390.566	0.0115
390.932	0.0092
391.297	0.0074
391.662	0.0056
392.027	0.0067
392.392	0.007
392.757	0.007
393.122	0.0064
393.487	0.0069
393.852	0.0075
394.217	0.0064
394.582	0.0072
394.946	0.0063
395.311	0.007
395.676	0.0053
396.04	0.008
396.405	0.0099
396.77	0.0116
397.134	0.009
397.499	0.0072
397.863	0.0071
398.227	0.0107
398.592	0.0085
398.956	0.0084
399.32	0.0046
399.685	0.0063
400.049	0.0085
400.413	0.0104
400.777	0.0089
401.141	0.0052
401.505	0.0056
401.869	0.0069
402.233	0.007
402.597	0.0048
402.961	0.0037
403.325	0.0073
403.689	0.0088
404.053	0.0104
404.416	0.0071
404.78	0.0077
405.144	0.0072
405.507	0.0079
405.871	0.009
406.234	0.0086
406.598	0.0065
406.961	0.0044
407.325	0.0051
407.688	0.0069
408.051	0.0063
408.415	0.0065
408.778	0.0061
409.141	0.0064
409.504	0.0068
409.867	0.0067
410.23	0.0066
410.593	0.0063
410.956	0.0051
411.319	0.0046
411.682	0.002
412.045	0.0035
412.408	0.0016
412.771	0.0049
413.134	0.0022
413.496	0.0047
413.859	0.0043
414.222	0.0068
414.584	0.009
414.947	0.0082
415.309	0.0077
415.672	0.0059
416.034	0.0042
416.396	0.0029
416.759	0.0033
417.121	0.0053
417.483	0.0054
417.846	0.0031
418.208	0.0015
418.57	0.001
418.932	-0.0002
419.294	0.001
419.656	0.0028
420.018	0.0041
420.38	0.0033
420.742	0.0023
421.104	0.004
421.466	0.0031
421.827	0.0018
422.189	0.0004
422.551	0.0003
422.912	0.0032
423.274	0.0046
423.636	0.0055
423.997	0.0045
424.359	0.0039
424.72	0.0041
425.081	0.0059
425.443	0.0068
425.804	0.0073
426.165	0.0055
426.527	0.0036
426.888	0.0017
427.249	0.0032
427.61	0.0031
427.971	0.0037
428.332	0.0016
428.693	0.0024
429.054	0.0023
429.415	0.0038
429.776	0.0024
430.137	0.0024
430.498	0.0013
430.858	0.0038
431.219	0.0032
431.58	0.0031
431.94	0.0024
432.301	0.0012
432.661	-0.0012
433.022	-0.0013
433.382	0.0017
433.743	0.0051
434.103	0.0051
434.463	0.0045
434.824	0.0029
435.184	0.0029
435.544	0.0036
435.904	0.006
436.264	0.0059
436.624	0.0056
436.985	0.0028
437.345	0.0049
437.704	0.004
438.064	0.0044
438.424	0.0028
438.784	0.0022
439.144	0.0021
439.504	0.0024
439.863	0.0015
440.223	0.0024
440.583	0.0011
440.942	0.0043
441.302	0.0038
441.661	0.0053
442.021	0.0058
442.38	0.0053
442.739	0.0033
443.099	-0.001
443.458	-0.0004
443.817	0.0006
444.176	0.0036
444.536	0.0028
444.895	0.0027
445.254	0
445.613	0.0001
445.972	-0.0011
446.331	-0.001
446.69	-0.0013
447.049	-0.002
447.407	-0.0015
447.766	-0.0006
448.125	0.001
448.484	0.0005
448.842	0.0006
449.201	0.0002
449.559	-0.0008
449.918	-0.0002
450.276	0.0004
450.635	0.0024
450.993	0.0008
451.352	-0.0004
451.71	-0.0004
452.068	-0.0017
452.426	-0.0016
452.785	-0.0012
453.143	-0.0001
453.501	0.0011
453.859	-0.0006
454.217	0.0005
454.575	-0.0013
454.933	-0.0004
455.291	-0.0005
455.649	-0.0005
456.006	-0.0026
456.364	-0.0033
456.722	-0.0007
457.079	0.002
457.437	0.0032
457.795	0.0034
458.152	0.0031
458.51	0.0021
458.867	-0.0007
459.225	0.0004
459.582	-0.0005
459.939	0.0012
460.297	-0.0008
460.654	0.0009
461.011	0.0017
461.368	0.0032
461.725	0.0015
462.082	0.0026
462.44	-0.0009
462.797	-0.001
463.153	-0.0014
463.51	0.0005
463.867	0.001
464.224	0.0018
464.581	0.0031
464.938	0.0056
465.294	0.0046
465.651	0.0055
466.008	0.0027
466.364	0.0017
466.721	-0.0019
467.077	-0.0035
467.434	-0.0054
467.79	-0.0012
468.146	-0.0001
468.503	0.0013
468.859	-0.0015
469.215	0.0001
469.571	-0.0008
469.927	0.0029
470.284	0.0017
470.64	0.003
470.996	0.0007
471.352	-0.0001
471.707	-0.0015
472.063	0.0002
472.419	0.0022
472.775	0.003
473.131	0.0007
473.486	-0.0014
473.842	-0.002
474.198	-0.0016
474.553	-0.0012
474.909	0.0003
475.264	0.0004
475.62	0.0008
475.975	-0.0009
476.331	-0.001
476.686	0
477.041	-0.0003
477.396	-0.0006
477.752	0.0002
478.107	-0.0014
478.462	-0.0016
478.817	-0.0048
479.172	-0.0026
479.527	-0.0044
479.882	-0.0022
480.237	-0.0035
480.591	-0.0023
480.946	-0.0013
481.301	-0.001
481.656	-0.0003
482.01	-0.0019
482.365	-0.0017
482.72	-0.003
483.074	-0.0033
483.429	-0.0031
483.783	-0.0009
484.137	-0.0013
484.492	-0.0004
484.846	-0.0016
485.2	0.0014
485.555	0.0027
485.909	0.0028
486.263	-0.0007
486.617	-0.0011
486.971	-0.0008
487.325	-0.0012
487.679	-0.0033
488.033	-0.003
488.387	-0.0007
488.741	-0.0017
489.094	-0.0014
489.448	-0.0029
489.802	-0.001
490.156	-0.0022
490.509	-0.0011
490.863	-0.0002
491.216	-0.0007
491.57	-0.001
491.923	-0.0011
492.277	0.0007
492.63	0.0019
492.983	0.0017
493.337	0.0005
493.69	-0.0009
494.043	-0.0021
494.396	-0.003
494.749	-0.0028
495.102	-0.0018
495.455	-0.0009
495.808	0.0008
496.161	0.0004
496.514	0.0002
496.867	-0.0032
497.22	-0.0046
497.572	-0.0053
497.925	-0.0034
498.278	-0.0018
498.63	-0.0009
498.983	-0.002
499.335	-0.0023
499.688	-0.0021
500.04	-0.0024
500.393	-0.0037
500.745	-0.005
501.097	-0.006
501.449	-0.0058
501.802	-0.0041
502.154	-0.0036
502.506	-0.0032
502.858	-0.0063
503.21	-0.0045
503.562	-0.0041
503.914	-0.0021
504.266	-0.0043
504.618	-0.0039
504.969	-0.0038
505.321	-0.0018
505.673	-0.0021
506.025	-0.0019
506.376	-0.0021
506.728	-0.002
507.079	-0.0001
507.431	-0.0005
507.782	0.0006
508.134	-0.0005
508.485	0.0022
508.836	0.0027
509.188	0.001
509.539	-0.0023
509.89	-0.0033
510.241	-0.0044
510.592	-0.0051
510.943	-0.0039
511.294	0.0003
511.645	0.0008
511.996	-0.0008
512.347	-0.0046
512.698	-0.0045
513.049	-0.0027
513.399	0.0004
513.75	0.0005
514.101	-0.0028
514.451	-0.0037
514.802	-0.0053
515.152	-0.0053
515.503	-0.0064
515.853	-0.004
516.203	-0.004
516.554	-0.0047
516.904	-0.0033
517.254	-0.003
517.604	-0.0028
517.955	-0.0075
518.305	-0.0088
518.655	-0.0105
519.005	-0.0083
519.355	-0.0092
519.705	-0.0077
520.055	-0.0087
520.404	-0.0063
520.754	-0.0068
521.104	-0.0045
521.454	-0.0041
521.803	-0.0038
522.153	-0.0049
522.502	-0.0049
522.852	-0.0022
523.201	-0.0021
523.551	-0.0028
523.9	-0.0079
524.249	-0.008
524.599	-0.0076
524.948	-0.004
525.297	-0.0033
525.646	-0.0056
525.995	-0.0072
526.344	-0.0056
526.694	-0.0039
527.042	-0.0039
527.391	-0.0088
527.74	-0.0086
528.089	-0.0069
528.438	-0.0028
528.787	-0.0037
529.135	-0.0062
529.484	-0.0074
529.833	-0.0061
530.181	-0.0051
530.53	-0.0069
530.878	-0.0073
531.227	-0.0083
531.575	-0.0076
531.923	-0.0079
532.271	-0.007
532.62	-0.004
532.968	-0.0033
533.316	-0.0043
533.664	-0.0038
534.012	-0.0032
534.36	-0.0006
534.708	-0.0028
535.056	-0.0066
535.404	-0.0072
535.752	-0.0067
536.1	-0.004
536.447	-0.005
536.795	-0.0066
537.143	-0.0072
537.49	-0.006
537.838	-0.006
538.185	-0.0036
538.533	-0.0056
538.88	-0.0059
539.228	-0.0071
539.575	-0.0076
539.922	-0.0052
540.269	-0.0052
540.617	-0.0027
540.964	-0.0056
541.311	-0.0062
541.658	-0.0063
542.005	-0.0047
542.352	-0.0032
542.699	-0.005
543.045	-0.0048
543.392	-0.0047
543.739	-0.0049
544.086	-0.0087
544.432	-0.0112
544.779	-0.0114
545.126	-0.0077
545.472	-0.007
545.819	-0.0053
546.165	-0.0053
546.512	-0.0041
546.858	-0.0067
547.204	-0.0103
547.55	-0.0112
547.897	-0.0098
548.243	-0.005
548.589	-0.0051
548.935	-0.0047
549.281	-0.0061
549.627	-0.0073
549.973	-0.0051
550.319	-0.0083
550.665	-0.0094
551.01	-0.009
551.356	-0.0041
551.702	-0.0009
552.048	-0.0015
552.393	-0.0036
552.739	-0.0049
553.084	-0.0062
553.43	-0.0049
553.775	-0.0049
554.12	-0.0042
554.466	-0.0084
554.811	-0.0094
555.156	-0.0131
555.502	-0.0091
555.847	-0.0056
556.192	-0.0014
556.537	-0.0024
556.882	-0.005
557.227	-0.0087
557.572	-0.0084
557.917	-0.0077
558.261	-0.0045
558.606	-0.0037
558.951	-0.0038
559.295	-0.0038
559.64	-0.0066
559.985	-0.0058
560.329	-0.0086
560.674	-0.0064
561.018	-0.0068
561.363	-0.005
561.707	-0.0068
562.051	-0.0093
562.395	-0.0092
562.74	-0.0062
563.084	-0.0047
563.428	-0.0051
563.772	-0.0078
564.116	-0.0092
564.46	-0.009
564.804	-0.0101
565.148	-0.011
565.492	-0.0116
565.835	-0.0109
566.179	-0.0078
566.523	-0.0077
566.866	-0.0079
567.21	-0.0094
567.554	-0.0103
567.897	-0.0076
568.24	-0.0057
568.584	-0.0019
568.927	-0.0013
569.271	-0.0018
569.614	-0.0054
569.957	-0.0066
570.3	-0.0087
570.643	-0.0085
570.986	-0.0092
571.329	-0.0087
571.672	-0.006
572.015	-0.0077
572.358	-0.0053
572.701	-0.0094
573.044	-0.0085
573.387	-0.0103
573.729	-0.0095
574.072	-0.0095
574.414	-0.0115
574.757	-0.011
575.099	-0.0085
575.442	-0.0072
575.784	-0.0079
576.127	-0.0104
576.469	-0.0107
576.811	-0.0097
577.153	-0.0113
577.496	-0.0104
577.838	-0.0103
578.18	-0.0088
578.522	-0.0101
578.864	-0.012
579.206	-0.0131
579.548	-0.0118
579.889	-0.0101
580.231	-0.0106
580.573	-0.0136
580.915	-0.014
581.256	-0.0118
581.598	-0.008
581.939	-0.0077
582.281	-0.0119
582.622	-0.0123
582.964	-0.0094
583.305	-0.0094
583.646	-0.0095
583.988	-0.0157
584.329	-0.0126
584.67	-0.0112
585.011	-0.0086
585.352	-0.0083
585.693	-0.0098
586.034	-0.0083
586.375	-0.0052
586.716	-0.0072
587.057	-0.0055
587.398	-0.0133
587.738	-0.0118
588.079	-0.0111
588.42	-0.0072
588.76	-0.0079
589.101	-0.0088
589.441	-0.0087
589.782	-0.0072
590.122	-0.0087
590.463	-0.0098
590.803	-0.0092
591.143	-0.0093
591.483	-0.0098
591.823	-0.0109
592.164	-0.0099
592.504	-0.0094
592.844	-0.0105
593.184	-0.0084
593.523	-0.0055
593.863	-0.0044
594.203	-0.0102
594.543	-0.0122
594.883	-0.0095
595.222	-0.0101
595.562	-0.0144
595.901	-0.0144
596.241	-0.012
596.58	-0.0087
596.92	-0.0072
597.259	-0.0053
597.599	-0.0063
597.938	-0.0101
598.277	-0.0084
598.616	-0.0067
598.955	-0.0079
599.295	-0.0105
599.634	-0.0118
599.973	-0.0135
600.312	-0.0154
600.65	-0.0125
600.989	-0.0075
601.328	-0.0048
601.667	-0.0087
602.005	-0.0092
602.344	-0.0106
602.683	-0.012
603.021	-0.0142
603.36	-0.0123
603.698	-0.0079
604.037	-0.0069
604.375	-0.0081
604.713	-0.0102
605.052	-0.0109
605.39	-0.01
605.728	-0.0101
606.066	-0.0128
606.404	-0.0182
606.742	-0.0164
607.08	-0.0149
607.418	-0.0093
607.756	-0.0104
608.094	-0.0122
608.431	-0.0133
608.769	-0.0143
609.107	-0.0102
609.444	-0.0123
609.782	-0.0116
610.12	-0.014
610.457	-0.0131
610.794	-0.0116
611.132	-0.0099
611.469	-0.0099
611.806	-0.0111
612.144	-0.0105
612.481	-0.01
612.818	-0.0091
613.155	-0.0092
613.492	-0.0065
613.829	-0.0065
614.166	-0.0065
614.503	-0.0086
614.84	-0.0084
615.176	-0.01
615.513	-0.0088
615.85	-0.0097
616.187	-0.008
616.523	-0.0089
616.86	-0.0119
617.196	-0.0143
617.533	-0.0163
617.869	-0.0121
618.205	-0.0102
618.542	-0.0093
618.878	-0.0083
619.214	-0.0116
619.55	-0.0114
619.886	-0.0114
620.222	-0.009
620.558	-0.0075
620.894	-0.0103
621.23	-0.0098
621.566	-0.0141
621.902	-0.0146
622.238	-0.0138
622.573	-0.0084
622.909	-0.009
623.244	-0.0102
623.58	-0.0115
623.916	-0.0094
624.251	-0.0095
624.586	-0.0121
624.922	-0.0139
625.257	-0.0106
625.592	-0.0085
625.927	-0.0053
626.263	-0.0088
626.598	-0.0109
626.933	-0.0148
627.268	-0.0151
627.603	-0.014
627.938	-0.0118
628.272	-0.0119
628.607	-0.0124
628.942	-0.0117
629.277	-0.0096
629.611	-0.0113
629.946	-0.0152
630.281	-0.0131
630.615	-0.0119
630.949	-0.0057
631.284	-0.0049
631.618	-0.0031
631.953	-0.0064
632.287	-0.0095
632.621	-0.0084
632.955	-0.0078
633.289	-0.0072
633.623	-0.0063
633.957	-0.0066
634.291	-0.008
634.625	-0.0108
634.959	-0.0129
635.293	-0.0122
635.627	-0.0138
635.96	-0.0109
636.294	-0.0119
636.627	-0.0102
636.961	-0.0102
637.294	-0.0106
637.628	-0.0088
637.961	-0.0106
638.295	-0.0128
638.628	-0.0146
638.961	-0.0127
639.294	-0.0089
639.628	-0.0059
639.961	-0.0037
640.294	-0.0024
640.627	-0.0084
640.96	-0.0121
641.293	-0.0175
641.625	-0.0139
641.958	-0.0122
642.291	-0.0069
642.624	-0.0042
642.956	-0.0046
643.289	-0.0048
643.621	-0.0074
643.954	-0.0096
644.286	-0.0141
644.619	-0.016
644.951	-0.0141
645.283	-0.01
645.616	-0.0096
645.948	-0.0088
646.28	-0.01
646.612	-0.0068
646.944	-0.0033
647.276	-0.001
647.608	-0.0034
647.94	-0.0066
648.272	-0.0103
648.603	-0.01
648.935	-0.0102
649.267	-0.0109
649.598	-0.012
649.93	-0.0166
650.261	-0.0134
650.593	-0.0096
650.924	-0.0061
651.256	-0.0072
651.587	-0.0117
651.918	-0.0103
652.25	-0.0119
652.581	-0.0092
652.912	-0.0112
653.243	-0.0113
653.574	-0.0116
653.905	-0.0124
654.236	-0.0084
654.567	-0.0069
654.897	-0.0078
655.228	-0.0053
655.559	-0.0074
655.89	-0.0071
656.22	-0.009
656.551	-0.0096
656.881	-0.0089
657.212	-0.014
657.542	-0.0151
657.872	-0.0166
658.203	-0.0117
658.533	-0.033
658.863	-0.0264
659.193	-0.0171
659.523	-0.0089
659.853	0.0012
660.183	-0.0069
660.513	-0.0117
660.843	-0.0118
661.173	-0.0147
661.503	-0.0149
661.833	-0.0155
662.162	-0.0131
662.492	-0.0073
662.822	-0.0103
663.151	-0.0143
663.481	-0.0169
663.81	-0.0179
664.139	-0.0112
664.469	-0.012
664.798	-0.0069
665.127	-0.0089
665.456	-0.0095
665.785	-0.0075
666.114	-0.0123
666.443	-0.0093
666.772	-0.0093
667.101	-0.0116
667.43	-0.0166
667.759	-0.0164
668.088	-0.0125
668.416	-0.0093
668.745	-0.0111
669.074	-0.0144
669.402	-0.0191
669.731	-0.0156
670.059	-0.0155
670.388	-0.0068
670.716	-0.0106
671.044	-0.0065
671.372	-0.0082
671.701	-0.0104
672.029	-0.0109
672.357	-0.0136
672.685	-0.0128
673.013	-0.0109
673.341	-0.0094
673.669	-0.0104
673.996	-0.013
674.324	-0.0189
674.652	-0.0149
674.98	-0.0119
675.307	-0.0084
675.635	-0.0122
675.962	-0.013
676.29	-0.0118
676.617	-0.0081
676.945	-0.0068
677.272	-0.0057
677.599	-0.0063
677.926	-0.0083
678.253	-0.0117
678.581	-0.0126
678.908	-0.0136
679.235	-0.0114
679.561	-0.0068
679.888	-0.0047
680.215	-0.0045
680.542	-0.0111
680.869	-0.0129
681.195	-0.0101
681.522	-0.0086
681.849	-0.0104
682.175	-0.0168
682.502	-0.0137
682.828	-0.0085
683.154	-0.0087
683.481	-0.0107
683.807	-0.015
684.133	-0.0134
684.459	-0.0152
684.785	-0.0121
685.111	-0.0093
685.437	-0.01
685.763	-0.015
686.089	-0.0211
686.415	-0.0251
686.741	-0.0213
687.067	-0.0159
687.392	-0.0112
687.718	-0.0129
688.043	-0.0115
688.369	-0.0119
688.694	-0.0075
689.02	-0.01
689.345	-0.0048
689.67	-0.0087
689.996	-0.0089
690.321	-0.0154
690.646	-0.0131
690.971	-0.0148
691.296	-0.0096
691.621	-0.0115
691.946	-0.0065
692.271	-0.0106
692.596	-0.0106
692.921	-0.0087
693.245	-0.0024
693.57	-0.0043
693.895	-0.0069
694.219	-0.013
694.544	-0.0101
694.868	-0.0103
695.193	-0.0124
695.517	-0.0161
695.841	-0.0197
696.166	-0.0192
696.49	-0.016
696.814	-0.0124
697.138	-0.0075
697.462	-0.0079
697.786	-0.0079
698.11	-0.014
698.434	-0.0137
698.758	-0.0158
699.081	-0.0137
699.405	-0.0137
699.729	-0.0119
700.052	-0.0152
700.376	-0.0104
700.7	-0.0093
701.023	-0.0046
701.346	-0.0089
701.67	-0.009
701.993	-0.0147
702.316	-0.015
702.639	-0.016
702.963	-0.0142
703.286	-0.013
703.609	-0.0138
703.932	-0.0162
704.255	-0.0119
704.578	-0.0109
704.9	-0.0038
705.223	-0.0125
705.546	-0.0121
705.868	-0.0156
706.191	-0.0167
706.514	-0.0199
706.836	-0.0171
707.159	-0.0132
707.481	-0.0075
707.803	-0.0077
708.126	-0.0064
708.448	-0.0115
708.77	-0.0129
709.092	-0.0115
709.414	-0.0127
709.736	-0.014
710.058	-0.016
710.38	-0.0136
710.702	-0.0119
711.024	-0.0121
711.345	-0.0096
711.667	-0.006
711.989	-0.003
712.31	-0.0016
712.632	-0.0104
712.953	-0.0109
713.275	-0.0125
713.596	-0.0041
713.917	-0.0046
714.239	-0.0116
714.56	-0.0154
714.881	-0.0158
715.202	-0.0148
715.523	-0.0124
715.844	-0.0115
716.165	-0.0107
716.486	-0.013
716.807	-0.0155
717.128	-0.0153
717.448	-0.0161
717.769	-0.0167
718.09	-0.0132
718.41	-0.0101
718.731	-0.0062
719.051	-0.0066
719.372	-0.0037
719.692	-0.0089
720.012	-0.0094
720.332	-0.015
720.653	-0.0119
720.973	-0.0141
721.293	-0.012
721.613	-0.0124
721.933	-0.0062
722.253	-0.0035
722.573	-0.0038
722.892	-0.0096
723.212	-0.0202
723.532	-0.0225
723.851	-0.0216
724.171	-0.0148
724.491	-0.0198
724.81	-0.0189
725.129	-0.0143
725.449	-0.0051
725.768	-0.0065
726.087	-0.0099
726.407	-0.0097
726.726	-0.0078
727.045	-0.0083
727.364	-0.012
727.683	-0.0108
728.002	-0.0132
728.321	-0.012
728.64	-0.0124
728.958	-0.0083
729.277	-0.0091
729.596	-0.0103
729.914	-0.0129
730.233	-0.0106
730.551	-0.0124
730.87	-0.0151
731.188	-0.0165
731.507	-0.0121
731.825	-0.0092
732.143	-0.0099
732.461	-0.0116
732.779	-0.0086
733.097	-0.011
733.415	-0.0094
733.733	-0.0177
734.051	-0.0143
734.369	-0.0149
734.687	-0.0118
735.005	-0.0084
735.322	-0.0118
735.64	-0.0143
735.957	-0.0159
736.275	-0.0145
736.592	-0.0102
736.91	-0.0137
737.227	-0.0141
737.544	-0.0173
737.862	-0.0139
738.179	-0.0116
738.496	-0.0064
738.813	-0.0112
739.13	-0.0135
739.447	-0.0155
739.764	-0.0183
740.081	-0.0196
740.398	-0.0188
740.714	-0.0151
741.031	-0.0123
741.348	-0.0154
741.664	-0.0162
741.981	-0.0198
742.297	-0.0132
742.614	-0.0126
742.93	-0.0086
743.246	-0.0113
743.563	-0.0072
743.879	-0.0104
744.195	-0.0121
744.511	-0.0184
744.827	-0.0184
745.143	-0.0231
745.459	-0.0199
745.775	-0.0144
746.091	-0.0091
746.406	-0.0085
746.722	-0.0138
747.038	-0.0158
747.353	-0.0146
747.669	-0.0139
747.984	-0.0162
748.3	-0.0147
748.615	-0.0185
748.93	-0.0161
749.246	-0.0169
749.561	-0.0103
749.876	-0.0116
750.191	-0.0103
750.506	-0.0124
750.821	-0.0095
751.136	-0.014
751.451	-0.0115
751.766	-0.0113
752.08	-0.0079
752.395	-0.0105
752.71	-0.0112
753.024	-0.0127
753.339	-0.0087
753.653	-0.0082
753.968	-0.009
754.282	-0.0118
754.596	-0.011
754.911	-0.0104
755.225	-0.0042
755.539	-0.0103
755.853	-0.0084
756.167	-0.0137
756.481	-0.0083
756.795	-0.0098
757.109	-0.0104
757.423	-0.012
757.736	-0.0092
758.05	-0.012
758.364	-0.0089
758.677	-0.0134
758.991	-0.0112
759.304	-0.0158
759.618	-0.0146
759.931	-0.0139
760.244	-0.0127
760.558	-0.0163
760.871	-0.017
761.184	-0.0168
761.497	-0.0111
761.81	-0.0154
762.123	-0.0217
762.436	-0.0235
762.749	-0.0181
763.062	-0.0114
763.374	-0.0135
763.687	-0.0134
764	-0.0111
764.312	-0.0066
764.625	-0.0087
764.937	-0.0155
765.25	-0.02
765.562	-0.0166
765.874	-0.0112
766.186	-0.0119
766.499	-0.0176
766.811	-0.0204
767.123	-0.0213
767.435	-0.0175
767.747	-0.0151
768.059	-0.011
768.37	-0.0122
768.682	-0.0124
768.994	-0.0158
769.306	-0.016
769.617	-0.0157
769.929	-0.0075
770.24	-0.0063
770.552	-0.01
770.863	-0.0187
771.174	-0.0155
771.486	-0.0132
771.797	-0.0106
772.108	-0.013
772.419	-0.0112
772.73	-0.012
773.041	-0.0122
773.352	-0.0132
773.663	-0.0133
773.974	-0.0113
774.285	-0.0138
774.595	-0.0141
774.906	-0.0137
775.217	-0.0107
775.527	-0.0084
775.838	-0.0089
776.148	-0.0064
776.458	-0.0059
776.769	-0.0061
777.079	-0.0108
777.389	-0.0136
777.699	-0.0127
778.009	-0.0109
778.319	-0.0133
778.629	-0.0118
778.939	-0.0128
779.249	-0.0075
779.559	-0.0121
779.869	-0.009
780.178	-0.0129
780.488	-0.0119
780.798	-0.0172
781.107	-0.0121
781.417	-0.0171
781.726	-0.0187
782.035	-0.0216
782.345	-0.0147
782.654	-0.015
782.963	-0.014
783.272	-0.016
783.581	-0.0123
783.89	-0.0146
784.199	-0.0147
784.508	-0.0188
784.817	-0.024
785.126	-0.0292
785.434	-0.0254
785.743	-0.0177
786.052	-0.0131
786.36	-0.0203
786.669	-0.0225
786.977	-0.0216
787.285	-0.0157
787.594	-0.0167
787.902	-0.0181
788.21	-0.0172
788.518	-0.0128
788.826	-0.0127
789.135	-0.0106
789.442	-0.0125
789.75	-0.0123
790.058	-0.0154
790.366	-0.0173
790.674	-0.0195
790.981	-0.0155
791.289	-0.0151
791.597	-0.0146
791.904	-0.0202
792.212	-0.02
792.519	-0.0177
792.826	-0.0152
793.134	-0.0143
793.441	-0.0147
793.748	-0.0151
794.055	-0.0161
794.362	-0.0213
794.669	-0.0218
794.976	-0.0216
795.283	-0.0167
795.59	-0.0148
795.897	-0.0154
796.203	-0.0142
796.51	-0.0199
796.817	-0.0174
797.123	-0.0133
797.43	-0.0055
797.736	-0.0119
798.042	-0.0216
798.349	-0.0228
798.655	-0.0136
798.961	-0.0122
799.267	-0.0156
799.573	-0.0215
799.879	-0.0204
800.185	-0.018
800.491	-0.0157
800.797	-0.0122
801.103	-0.0166
801.408	-0.018
801.714	-0.018
802.02	-0.0141
802.325	-0.0153
802.631	-0.0172
802.936	-0.017
803.242	-0.0127
803.547	-0.0167
803.852	-0.0198
804.157	-0.0247
804.462	-0.0206
804.768	-0.0206
805.073	-0.0148
805.378	-0.0163
805.682	-0.0166
805.987	-0.0193
806.292	-0.0144
806.597	-0.0082
806.902	-0.01
807.206	-0.0135
807.511	-0.0212
807.815	-0.0215
808.12	-0.0212
808.424	-0.0145
808.728	-0.0156
809.033	-0.0145
809.337	-0.0172
809.641	-0.0138
809.945	-0.0167
810.249	-0.0131
810.553	-0.0175
810.857	-0.0162
811.161	-0.0203
811.465	-0.0129
811.768	-0.0134
812.072	-0.0183
812.376	-0.0181
812.679	-0.0243
812.983	-0.0196
813.286	-0.0247
813.59	-0.0209
813.893	-0.0224
814.196	-0.0166
814.499	-0.0118
814.803	-0.0101
815.106	-0.0189
815.409	-0.0096
815.712	-0.0039
816.015	0.0003
816.318	-0.0166
816.62	-0.021
816.923	-0.0198
817.226	-0.0151
817.528	-0.012
817.831	-0.0145
818.133	-0.0116
818.436	-0.02
818.738	-0.0164
819.041	-0.0251
819.343	-0.0201
819.645	-0.0246
819.947	-0.0149
820.249	-0.0222
820.551	-0.0234
820.853	-0.0251
821.155	-0.0207
821.457	-0.0155
821.759	-0.0128
822.061	-0.0091
822.362	-0.0089
822.664	-0.0131
822.966	-0.0087
823.267	-0.0113
823.569	-0.0171
823.87	-0.0259
824.171	-0.0183
824.473	-0.0141
824.774	-0.008
825.075	-0.0172
825.376	-0.0153
825.677	-0.0175
825.978	-0.0169
826.279	-0.0198
826.58	-0.0164
826.881	-0.017
827.181	-0.0078
827.482	-0.0082
827.783	-0.0078
828.083	-0.0209
828.384	-0.0289
828.684	-0.0338
828.985	-0.029
829.285	-0.0271
829.585	-0.0201
829.885	-0.0166
830.185	-0.0199
830.486	-0.0218
830.786	-0.0105
831.086	-0.0022
831.385	-0.0034
831.685	-0.0187
831.985	-0.0287
832.285	-0.0274
832.585	-0.0259
832.884	-0.0143
833.184	-0.0165
833.483	-0.0245
833.783	-0.029
834.082	-0.026
834.381	-0.0201
834.681	-0.021
834.98	-0.0167
835.279	-0.0201
835.578	-0.0207
835.877	-0.0171
836.176	-0.0069
836.475	0.0011
836.774	-0.0018
837.072	-0.004
837.371	-0.0083
837.67	-0.012
837.968	-0.0153
838.267	-0.0196
838.565	-0.0212
838.864	-0.0175
839.162	-0.0147
839.46	-0.0297
839.759	-0.0242
840.057	-0.0214
840.355	-0.0091
840.653	-0.0131
840.951	-0.0229
841.249	-0.0083
841.547	0.0029
841.845	0.0153
842.142	0.0106
842.44	-0.0052
842.738	-0.0148
843.035	-0.0189
843.333	-0.0163
843.63	-0.0177
843.928	-0.012
844.225	-0.0111
844.522	-0.008
844.82	-0.0185
845.117	-0.0252
845.414	-0.0189
845.711	-0.0078
846.008	-0.0035
846.305	-0.0098
846.602	-0.0222
846.898	-0.0239
847.195	-0.0321
847.492	-0.0268
847.788	-0.0262
848.085	-0.0177
848.382	-0.0121
848.678	-0.0159
848.974	-0.0218
849.271	-0.0093
849.567	-0.0064
849.863	-0.0009
850.159	-0.0174
850.455	-0.0164
850.751	-0.0087
851.047	-0.008
851.343	-0.0097
851.639	-0.0093
851.935	-0.0108
852.23	-0.017
852.526	-0.0236
852.822	-0.024
853.117	-0.0123
853.413	-0.0172
853.708	-0.023
854.003	-0.0051
854.299	-0.0008
854.594	-0.0022
854.889	-0.0309
855.184	-0.0318
855.479	-0.0179
855.774	-0.004
856.069	-0.0185
856.364	-0.0275
856.659	-0.0334
856.954	-0.0015
857.248	-0.0007
857.543	0.0063
857.837	-0.0198
858.132	-0.0118
858.426	-0.0243
858.721	-0.0141
859.015	-0.0142
859.309	0
859.604	0.0015
859.898	0.0026
860.192	-0.0022
860.486	-0.0115
860.78	-0.0241
861.074	-0.0206
861.367	0.0015
861.661	0.0167
861.955	0.0169
862.248	0.0012
862.542	-0.0159
862.836	-0.0171
863.129	-0.0174
863.422	-0.0188
863.716	-0.034
864.009	-0.0133
864.302	-0.0047
864.595	0.001
864.889	-0.0283
865.182	-0.0342
865.475	-0.03
865.767	-0.0272
866.06	-0.0237
866.353	-0.0289
866.646	-0.0238
866.938	-0.0259
867.231	-0.0188
867.524	-0.0071
867.816	0.0122
868.109	0.0004
868.401	-0.0044
868.693	-0.0222
868.985	-0.0178
869.278	-0.0243
869.57	-0.0256
869.862	-0.0343
870.154	-0.0387
870.446	-0.0381
870.738	-0.0405
871.029	-0.0652
871.321	-0.0721
871.613	-0.0396
871.904	-0.0257
872.196	-0.0078
872.487	-0.0122
872.779	-0.0093
873.07	-0.0013
873.362	-0.0088
873.653	0.026
873.944	0.0079
874.235	-0.0005
874.526	-0.0339
874.817	-0.0418
875.108	-0.0416
875.399	-0.0387
875.69	-0.0147
875.981	-0.0015
876.271	0.0073
876.562	0.0007
876.853	-0.0028
877.143	-0.0043
877.434	-0.0029
877.724	-0.0111
878.014	0.0107
878.305	-0.0109
878.595	0.01
878.885	-0.0227
879.175	-0.0055
879.465	-0.0168
879.755	0.0164
880.045	0.0212
880.335	0.0114
880.624	-0.0016
880.914	-0.0016
