Data from Blank1_072017_1b_Absorbance_18-13-25-145.txt Node
Date: Fri Jul 28 18:13:25 MDT 2017
User: Tank Lab
Spectrometer: FLMS01220
Trigger mode: 0
Integration Time (sec): 1.000000E-1
Scans to average: 10
Electric dark correction enabled: true
Nonlinearity correction enabled: false
Boxcar width: 1
XAxis mode: Wavelengths
Number of Pixels in Spectrum: 2048
>>>>>Begin Spectral Data<<<<<
179.47	-0
179.856	-0
180.241	-0
180.626	-0
181.011	0.109
181.396	0.4588
181.781	-0
182.166	-1.2738
182.551	0.4972
182.936	-0
183.321	-0
183.706	1.5825
184.091	-0
184.476	-0
184.86	-0.2141
185.245	-0.1846
185.63	0.2459
186.015	-0
186.399	-0
186.784	-0
187.169	-0
187.553	-0
187.938	-0
188.322	-0.1844
188.707	-0.092
189.091	-0.0374
189.475	-0.0082
189.86	-0.014
190.244	-0.0059
190.629	-0.0184
191.013	0.002
191.397	0.0005
191.781	0.0231
192.165	0.0143
192.55	0.0243
192.934	0.0249
193.318	0.0292
193.702	0.0301
194.086	0.0268
194.47	0.027
194.854	0.0294
195.238	0.0205
195.622	0.0189
196.006	0.0153
196.389	0.0197
196.773	0.0176
197.157	0.0211
197.541	0.0221
197.924	0.022
198.308	0.0195
198.692	0.0173
199.075	0.0135
199.459	0.0126
199.843	0.011
200.226	0.0149
200.61	0.0158
200.993	0.0166
201.376	0.0167
201.76	0.0138
202.143	0.0159
202.527	0.0142
202.91	0.013
203.293	0.0112
203.676	0.0113
204.059	0.0146
204.443	0.015
204.826	0.017
205.209	0.0162
205.592	0.0159
205.975	0.0137
206.358	0.0145
206.741	0.015
207.124	0.0188
207.507	0.0184
207.89	0.0186
208.273	0.0144
208.655	0.0132
209.038	0.0113
209.421	0.0128
209.804	0.0149
210.186	0.0165
210.569	0.0145
210.951	0.0145
211.334	0.0146
211.717	0.015
212.099	0.0117
212.482	0.0095
212.864	0.0084
213.246	0.0105
213.629	0.0112
214.011	0.0136
214.393	0.0109
214.776	0.011
215.158	0.0085
215.54	0.009
215.922	0.0094
216.305	0.0123
216.687	0.0112
217.069	0.0103
217.451	0.009
217.833	0.0108
218.215	0.0104
218.597	0.01
218.979	0.0075
219.361	0.0063
219.742	0.0068
220.124	0.0097
220.506	0.0106
220.888	0.0093
221.27	0.0085
221.651	0.009
222.033	0.0099
222.415	0.009
222.796	0.0101
223.178	0.0091
223.559	0.0085
223.941	0.0054
224.322	0.0056
224.704	0.0056
225.085	0.0064
225.466	0.0058
225.848	0.0058
226.229	0.0062
226.61	0.0071
226.992	0.0072
227.373	0.0067
227.754	0.0064
228.135	0.0053
228.516	0.0053
228.897	0.0035
229.278	0.0054
229.659	0.005
230.04	0.0054
230.421	0.0041
230.802	0.006
231.183	0.0076
231.564	0.0089
231.944	0.006
232.325	0.0051
232.706	0.0038
233.087	0.0061
233.467	0.0065
233.848	0.0072
234.229	0.0071
234.609	0.0084
234.99	0.0072
235.37	0.0071
235.751	0.0063
236.131	0.0068
236.511	0.0081
236.892	0.0085
237.272	0.0081
237.652	0.0066
238.033	0.0073
238.413	0.0076
238.793	0.0066
239.173	0.0055
239.553	0.0062
239.933	0.0067
240.313	0.0065
240.694	0.0042
241.074	0.0028
241.453	0.0024
241.833	0.004
242.213	0.0046
242.593	0.0035
242.973	0.0049
243.353	0.0049
243.732	0.0056
244.112	0.0041
244.492	0.0038
244.872	0.0036
245.251	0.0042
245.631	0.0054
246.01	0.0055
246.39	0.0049
246.769	0.0046
247.149	0.0055
247.528	0.0064
247.908	0.0062
248.287	0.0045
248.666	0.0044
249.045	0.0044
249.425	0.0044
249.804	0.0036
250.183	0.0035
250.562	0.0047
250.941	0.0055
251.32	0.0061
251.699	0.006
252.078	0.0053
252.457	0.0055
252.836	0.0061
253.215	0.0081
253.594	0.0067
253.973	0.0059
254.352	0.0046
254.731	0.0052
255.109	0.0048
255.488	0.0051
255.867	0.0061
256.245	0.0058
256.624	0.0046
257.002	0.0042
257.381	0.0047
257.759	0.0044
258.138	0.0031
258.516	0.0034
258.895	0.0042
259.273	0.0041
259.651	0.0035
260.03	0.0027
260.408	0.0032
260.786	0.003
261.164	0.0037
261.542	0.0031
261.921	0.0028
262.299	0.0031
262.677	0.0034
263.055	0.0045
263.433	0.0035
263.811	0.0032
264.188	0.0022
264.566	0.0033
264.944	0.0034
265.322	0.004
265.7	0.0036
266.077	0.0041
266.455	0.0039
266.833	0.0047
267.21	0.0051
267.588	0.0055
267.966	0.0055
268.343	0.0052
268.721	0.0044
269.098	0.0039
269.475	0.0047
269.853	0.0049
270.23	0.0052
270.607	0.003
270.985	0.0032
271.362	0.0018
271.739	0.0028
272.116	0.0033
272.494	0.0042
272.871	0.0047
273.248	0.0043
273.625	0.0034
274.002	0.0018
274.379	0.0003
274.756	0.0012
275.132	0.0022
275.509	0.0041
275.886	0.003
276.263	0.0035
276.64	0.0024
277.016	0.0036
277.393	0.0049
277.77	0.0048
278.146	0.0046
278.523	0.0026
278.899	0.0026
279.276	0.0018
279.652	0.0018
280.029	0.0022
280.405	0.0027
280.782	0.0027
281.158	0.0033
281.534	0.0015
281.91	0.0011
282.287	-0
282.663	0.003
283.039	0.005
283.415	0.0047
283.791	0.0033
284.167	0.0021
284.543	0.0035
284.919	0.0026
285.295	0.0026
285.671	0.0022
286.047	0.0035
286.423	0.0026
286.799	0.0033
287.174	0.0023
287.55	0.0014
287.926	0.0006
288.301	0.0015
288.677	0.0036
289.053	0.0027
289.428	0.0025
289.804	0.0015
290.179	0.0026
290.555	0.0033
290.93	0.0036
291.305	0.0028
291.681	0.0031
292.056	0.0048
292.431	0.0049
292.806	0.0036
293.182	0.0021
293.557	0.0027
293.932	0.0034
294.307	0.0037
294.682	0.0035
295.057	0.0029
295.432	0.0032
295.807	0.0034
296.182	0.0032
296.557	0.0039
296.932	0.0036
297.306	0.0059
297.681	0.004
298.056	0.0043
298.43	0.0013
298.805	0.0006
299.18	0.0008
299.554	0.002
299.929	0.0035
300.303	0.0025
300.678	0.0013
301.052	0.0023
301.427	0.0024
301.801	0.0036
302.175	0.0026
302.55	0.003
302.924	0.0031
303.298	0.0023
303.672	0.0023
304.046	0.0014
304.421	0.0018
304.795	0.0025
305.169	0.0039
305.543	0.0033
305.917	0.0028
306.291	0.0028
306.664	0.0045
307.038	0.0046
307.412	0.0039
307.786	0.0029
308.16	0.0025
308.533	0.0017
308.907	0.002
309.281	0.0038
309.654	0.004
310.028	0.0041
310.401	0.004
310.775	0.0031
311.148	0.0035
311.522	0.0026
311.895	0.0033
312.268	0.0025
312.642	0.0026
313.015	0.0036
313.388	0.0045
313.761	0.0041
314.135	0.0047
314.508	0.0045
314.881	0.0048
315.254	0.0034
315.627	0.0033
316	0.004
316.373	0.0032
316.746	0.0043
317.118	0.0034
317.491	0.0041
317.864	0.0043
318.237	0.0043
318.61	0.0043
318.982	0.0032
319.355	0.003
319.727	0.0022
320.1	0.0015
320.473	0.0013
320.845	0.0031
321.218	0.003
321.59	0.003
321.962	0.0016
322.335	0.0006
322.707	-0.0002
323.079	0.0006
323.452	0.0028
323.824	0.0042
324.196	0.0042
324.568	0.0033
324.94	0.003
325.312	0.0043
325.684	0.0047
326.056	0.0036
326.428	0.0009
326.8	-0.0001
327.172	0.0011
327.544	0.0009
327.915	0.0001
328.287	0.0017
328.659	0.0048
329.031	0.0058
329.402	0.003
329.774	0.0004
330.145	-0.0008
330.517	-0.0008
330.888	-0.0009
331.26	-0.0003
331.631	0.0007
332.003	0.001
332.374	0.0014
332.745	0.0017
333.117	0.002
333.488	0.0022
333.859	0.0033
334.23	0.0029
334.601	0.003
334.972	0.0035
335.343	0.0039
335.714	0.0028
336.085	0.0007
336.456	0.0006
336.827	0.0016
337.198	0.0033
337.569	0.0023
337.94	0.002
338.31	0.0014
338.681	0.0012
339.052	0.0017
339.422	0.0015
339.793	0.0023
340.164	0.002
340.534	0.0016
340.905	-0.0002
341.275	-0.0018
341.645	-0.0026
342.016	0.0001
342.386	0.0017
342.756	0.0038
343.127	0.0021
343.497	0.0007
343.867	-0
344.237	0.0017
344.607	0.002
344.977	0.0009
345.347	0.0005
345.717	0.0007
346.087	0.0006
346.457	0.0028
346.827	0.0034
347.197	0.0044
347.567	0.0023
347.936	0.0022
348.306	0.0031
348.676	0.0048
349.046	0.0058
349.415	0.0047
349.785	0.0042
350.154	0.0024
350.524	0.0029
350.893	0.0007
351.263	0.0021
351.632	0.001
352.001	0.0016
352.371	0.0012
352.74	0.0026
353.109	0.0029
353.478	0.0037
353.847	0.0019
354.217	0.0026
354.586	0.0013
354.955	0.0041
355.324	0.004
355.693	0.0065
356.062	0.0041
356.43	0.0047
356.799	0.0026
357.168	0.0033
357.537	0.0034
357.906	0.0024
358.274	0.0025
358.643	0.0017
359.011	0.0017
359.38	-0.0003
359.749	-0.0007
360.117	-0.0002
360.486	0.0009
360.854	0.0016
361.222	0.0002
361.591	-0.0006
361.959	-0.0018
362.327	-0.0003
362.695	0.001
363.064	0.0016
363.432	0.002
363.8	0.0013
364.168	-0.0006
364.536	-0.0017
364.904	-0.0007
365.272	0.0007
365.64	0.0002
366.008	-0.0005
366.376	-0.0011
366.743	-0
367.111	0.0001
367.479	-0.0005
367.847	0.0012
368.214	0.0032
368.582	0.0032
368.949	0.0027
369.317	-0.0012
369.684	-0.0011
370.052	-0.0016
370.419	0.0008
370.787	0.0032
371.154	0.003
371.521	0.0029
371.889	0.0021
372.256	0.0015
372.623	0.0018
372.99	0.0002
373.357	0.0005
373.724	0.0007
374.091	0.004
374.458	0.0035
374.825	0.0028
375.192	0
375.559	-0.0002
375.926	-0.0016
376.293	-0.0009
376.659	-0.0019
377.026	-0.0008
377.393	0.0004
377.759	0.001
378.126	0.0002
378.492	-0.0005
378.859	-0.0012
379.225	-0.0016
379.592	-0.0005
379.958	0.0002
380.325	0.0019
380.691	0.0006
381.057	0.0019
381.423	0.0004
381.79	-0.0013
382.156	-0.0025
382.522	-0.0003
382.888	0.0015
383.254	0.0027
383.62	0.0009
383.986	0.0021
384.352	0.0003
384.718	0.0003
385.084	-0.0017
385.449	-0.0019
385.815	-0.0012
386.181	0.0015
386.547	0.0026
386.912	0.0018
387.278	0.0008
387.643	0.001
388.009	0.0022
388.374	0.0007
388.74	0.0017
389.105	0.0004
389.471	0.0008
389.836	0.0008
390.201	0.0026
390.566	0.0036
390.932	0.0034
391.297	0.0015
391.662	0.0003
392.027	-0.0008
392.392	0.0004
392.757	0.0011
393.122	0.0023
393.487	0.003
393.852	0.0017
394.217	0.0012
394.582	0.0016
394.946	0.0012
395.311	0.0015
395.676	-0.0004
396.04	0.0018
396.405	0.0024
396.77	0.0041
397.134	0.0018
397.499	0.0004
397.863	-0.0022
398.227	-0.0003
398.592	-0.0033
398.956	-0.0014
399.32	-0.0016
399.685	0.0019
400.049	0.003
400.413	0.0027
400.777	0.0019
401.141	0.0011
401.505	0.0013
401.869	0.0001
402.233	-0.001
402.597	-0.0016
402.961	-0.001
403.325	0.0004
403.689	0.0004
404.053	0.0004
404.416	0.001
404.78	0.0024
405.144	0.0036
405.507	0.0031
405.871	0.0026
406.234	0.0008
406.598	-0.0009
406.961	-0.0034
407.325	-0.0025
407.688	-0.0015
408.051	0.0011
408.415	0.0038
408.778	0.0041
409.141	0.0025
409.504	0.0008
409.867	0.0006
410.23	0.0018
410.593	0.002
410.956	0.0017
411.319	0.0017
411.682	-0.0008
412.045	0.0003
412.408	-0.0008
412.771	0.0021
413.134	-0.001
413.496	-0.001
413.859	-0.0008
414.222	0.0012
414.584	0.0043
414.947	0.0024
415.309	0.0017
415.672	0.0002
416.034	0.0008
416.396	-0.0003
416.759	-0.0003
417.121	-0.0001
417.483	0.0006
417.846	-0.0011
418.208	-0.0014
418.57	-0.0007
418.932	-0.002
419.294	-0.0014
419.656	-0.0022
420.018	-0.0005
420.38	-0.0007
420.742	-0.0005
421.104	-0.0001
421.466	-0.0013
421.827	-0.004
422.189	-0.0051
422.551	-0.0043
422.912	-0.0009
423.274	0.0022
423.636	0.0023
423.997	0.0027
424.359	0.0015
424.72	0.0035
425.081	0.0032
425.443	0.0028
425.804	0.0008
426.165	0.0025
426.527	0.0016
426.888	0.002
427.249	0.0003
427.61	0.0021
427.971	0.0012
428.332	0.0007
428.693	-0.0002
429.054	-0.0026
429.415	-0.0024
429.776	-0.0049
430.137	-0.0023
430.498	-0.0013
430.858	0.0024
431.219	0.0019
431.58	0.0034
431.94	0.0024
432.301	0.0029
432.661	-0.0006
433.022	-0.0009
433.382	0.0001
433.743	0.0034
434.103	0.0039
434.463	0.004
434.824	0.0009
435.184	0.0025
435.544	0.0024
435.904	0.0045
436.264	0.0031
436.624	0.0015
436.985	0.0001
437.345	0.0005
437.704	0.0008
438.064	0.0002
438.424	-0.0016
438.784	-0.0022
439.144	-0.0018
439.504	-0.0017
439.863	-0.0017
440.223	-0.0027
440.583	-0.0027
440.942	-0.0031
441.302	-0.0007
441.661	0.0018
442.021	0.0038
442.38	0.0014
442.739	-0.0013
443.099	-0.0034
443.458	0.0001
443.817	0.0016
444.176	0.0043
444.536	0.0025
444.895	0.0012
445.254	-0.0021
445.613	-0.0017
445.972	0.0008
446.331	0.0031
446.69	0.0023
447.049	-0.0026
447.407	-0.0029
447.766	-0.0014
448.125	0.0036
448.484	0.003
448.842	0.0037
449.201	0.002
449.559	0.0018
449.918	-0.0001
450.276	-0.0001
450.635	0.002
450.993	0.0031
451.352	0.0025
451.71	0.0023
452.068	-0.0006
452.426	-0.0005
452.785	-0.001
453.143	0.0005
453.501	0.001
453.859	-0.0008
454.217	0.0006
454.575	-0.0034
454.933	-0.0028
455.291	-0.0032
455.649	-0.0008
456.006	-0.0011
456.364	-0.0016
456.722	-0.0001
457.079	0.0022
457.437	0.0019
457.795	0.0029
458.152	0.0031
458.51	0.0046
458.867	0.004
459.225	0.0042
459.582	0.0022
459.939	0.0018
460.297	-0.0004
460.654	0.0012
461.011	0.0008
461.368	0.0034
461.725	0.001
462.082	0.0014
462.44	-0.0008
462.797	-0.0027
463.153	-0.0019
463.51	-0.0033
463.867	0.0013
464.224	0.0032
464.581	0.0047
464.938	0.004
465.294	0.0014
465.651	0.0034
466.008	0.0002
466.364	0.0009
466.721	-0.0006
467.077	-0.0014
467.434	-0.0043
467.79	-0.0049
468.146	-0.0031
468.503	-0.0011
468.859	-0.0029
469.215	-0.003
469.571	-0.0046
469.927	0.0004
470.284	0.0002
470.64	0.002
470.996	-0.001
471.352	-0.0001
471.707	0.0013
472.063	0.0048
472.419	0.0063
472.775	0.005
473.131	0.0025
473.486	-0.0019
473.842	-0.0008
474.198	-0.0033
474.553	0.0014
474.909	-0.0012
475.264	-0.001
475.62	-0.0004
475.975	0.0024
476.331	0.0064
476.686	0.0053
477.041	0.0047
477.396	0.0011
477.752	0.0019
478.107	0.0008
478.462	0.0015
478.817	-0.0011
479.172	-0.0007
479.527	-0.0017
479.882	-0.0009
480.237	-0.0027
480.591	-0.0016
480.946	-0.0003
481.301	0.0029
481.656	0.0041
482.01	0.0012
482.365	-0.0003
482.72	-0.0021
483.074	0.0013
483.429	0.0007
483.783	0.0011
484.137	0.0002
484.492	0.0011
484.846	0.0009
485.2	-0.0002
485.555	-0.0015
485.909	-0.0024
486.263	-0.0023
486.617	-0.0018
486.971	-0.0005
487.325	0.0002
487.679	0.0004
488.033	0.0009
488.387	0.0014
488.741	0.0016
489.094	-0.0001
489.448	-0.0013
489.802	-0.0001
490.156	0.0002
490.509	0.0016
490.863	-0.0002
491.216	0.0007
491.57	0.0005
491.923	0.0016
492.277	0.0012
492.63	0.0015
492.983	0.0013
493.337	0.0006
493.69	-0.0008
494.043	-0.0028
494.396	-0.0026
494.749	-0.0028
495.102	-0.0016
495.455	-0.001
495.808	0.0004
496.161	0.0005
496.514	0.0018
496.867	-0
497.22	0.0001
497.572	-0.0028
497.925	-0.0003
498.278	-0.0008
498.63	0.002
498.983	0.0001
499.335	-0.0003
499.688	-0.0026
500.04	-0.0041
500.393	-0.0043
500.745	-0.0049
501.097	-0.0034
501.449	-0.0028
501.802	-0.0022
502.154	-0.0011
502.506	-0.0012
502.858	-0.0011
503.21	-0.0016
503.562	-0.0018
503.914	-0.0008
504.266	0.0011
504.618	0.0015
504.969	0.0027
505.321	0
505.673	0.0001
506.025	-0.0031
506.376	-0.0027
506.728	-0.0007
507.079	0.0016
507.431	0.0021
507.782	0.0011
508.134	0.0004
508.485	0.0021
508.836	0.0003
509.188	-0.0001
509.539	-0.0018
509.89	0.0002
510.241	0.0006
510.592	0.0015
510.943	-0.0003
511.294	0.0008
511.645	-0.0024
511.996	-0.002
512.347	-0.0031
512.698	-0.001
513.049	-0.0009
513.399	-0.0007
513.75	-0
514.101	0.0009
514.451	0
514.802	-0.0008
515.152	-0.0019
515.503	0.0003
515.853	-0.0006
516.203	-0.001
516.554	-0.0029
516.904	-0.0034
517.254	-0.0022
517.604	-0.0018
517.955	-0.0035
518.305	-0.0066
518.655	-0.0058
519.005	-0.0043
519.355	-0.0021
519.705	-0.0047
520.055	-0.0053
520.404	-0.0061
520.754	-0.0064
521.104	-0.0033
521.454	-0.0038
521.803	-0.0025
522.153	-0.0036
522.502	-0.003
522.852	-0.0007
523.201	-0.001
523.551	-0.0004
523.9	-0.0042
524.249	-0.0045
524.599	-0.005
524.948	-0.0013
525.297	-0.0014
525.646	-0.0036
525.995	-0.0056
526.344	-0.0059
526.694	-0.0041
527.042	-0.003
527.391	-0.0038
527.74	-0.0051
528.089	-0.0028
528.438	-0.0013
528.787	0.0012
529.135	-0.0035
529.484	-0.0054
529.833	-0.0048
530.181	-0.0043
530.53	-0.0011
530.878	-0.0034
531.227	-0.0025
531.575	-0.0048
531.923	-0.0056
532.271	-0.008
532.62	-0.0063
532.968	-0.0043
533.316	-0.0041
533.664	-0.001
534.012	-0.0004
534.36	0.0036
534.708	-0.0002
535.056	-0.0024
535.404	-0.002
535.752	-0.0002
536.1	0.001
536.447	-0.0033
536.795	-0.0048
537.143	-0.0048
537.49	-0.0047
537.838	-0.0049
538.185	-0.0038
538.533	-0.0037
538.88	-0.0056
539.228	-0.0072
539.575	-0.0064
539.922	-0.0042
540.269	-0.0026
540.617	-0.0006
540.964	-0.003
541.311	-0.0027
541.658	-0.0037
542.005	-0.002
542.352	-0.0038
542.699	-0.0049
543.045	-0.0051
543.392	-0.0031
543.739	-0.0026
544.086	-0.0062
544.432	-0.0082
544.779	-0.0077
545.126	-0.0035
545.472	-0.0029
545.819	-0.0019
546.165	-0.0037
546.512	-0.0041
546.858	-0.0058
547.204	-0.0065
547.55	-0.0073
547.897	-0.0072
548.243	-0.0068
548.589	-0.0056
548.935	-0.0058
549.281	-0.0042
549.627	-0.0048
549.973	-0.0055
550.319	-0.0053
550.665	-0.0046
551.01	-0.0016
551.356	-0.0019
551.702	-0.0015
552.048	-0.0026
552.393	-0.0027
552.739	-0.0045
553.084	-0.0046
553.43	-0.0052
553.775	-0.004
554.12	-0.003
554.466	-0.0035
554.811	-0.0021
555.156	-0.0059
555.502	-0.0068
555.847	-0.0078
556.192	-0.0043
556.537	-0.005
556.882	-0.0051
557.227	-0.0087
557.572	-0.0055
557.917	-0.0013
558.261	-0.0001
558.606	0.0003
558.951	-0.0051
559.295	-0.0037
559.64	-0.004
559.985	-0.003
560.329	-0.0038
560.674	-0.0039
561.018	-0.0039
561.363	-0.0063
561.707	-0.0084
562.051	-0.0095
562.395	-0.0069
562.74	-0.0055
563.084	-0.0049
563.428	-0.0044
563.772	-0.0064
564.116	-0.0058
564.46	-0.0057
564.804	-0.0054
565.148	-0.0073
565.492	-0.0087
565.835	-0.0064
566.179	-0.0015
566.523	-0.001
566.866	-0.0033
567.21	-0.0077
567.554	-0.0072
567.897	-0.003
568.24	-0.0019
568.584	-0.0058
568.927	-0.0097
569.271	-0.0102
569.614	-0.0076
569.957	-0.005
570.3	-0.0052
570.643	-0.0053
570.986	-0.0058
571.329	-0.0013
571.672	0.0032
572.015	0.0009
572.358	0.0005
572.701	-0.0033
573.044	-0.0035
573.387	-0.0067
573.729	-0.0056
574.072	-0.0045
574.414	-0.0046
574.757	-0.0066
575.099	-0.0079
575.442	-0.0087
575.784	-0.005
576.127	-0.0034
576.469	-0.0039
576.811	-0.0063
577.153	-0.0065
577.496	-0.0074
577.838	-0.0049
578.18	-0.0083
578.522	-0.009
578.864	-0.0133
579.206	-0.0072
579.548	-0.0051
579.889	-0.0058
580.231	-0.006
580.573	-0.0028
580.915	-0.0024
581.256	-0.0072
581.598	-0.0097
581.939	-0.0107
582.281	-0.0051
582.622	-0.0041
582.964	-0.0021
583.305	-0.0038
583.646	-0.0031
583.988	0.0007
584.329	-0.001
584.67	-0.0055
585.011	-0.0106
585.352	-0.0126
585.693	-0.0098
586.034	-0.0095
586.375	-0.0078
586.716	-0.0074
587.057	-0.0053
587.398	-0.009
587.738	-0.0052
588.079	-0.006
588.42	-0.0043
588.76	-0.008
589.101	-0.0093
589.441	-0.0094
589.782	-0.0073
590.122	-0.0078
590.463	-0.0079
590.803	-0.0106
591.143	-0.0069
591.483	-0.0088
591.823	-0.0076
592.164	-0.0104
592.504	-0.0082
592.844	-0.0104
593.184	-0.009
593.523	-0.0082
593.863	-0.0049
594.203	-0.0065
594.543	-0.0067
594.883	-0.008
595.222	-0.0069
595.562	-0.0054
595.901	-0.0074
596.241	-0.008
596.58	-0.0097
596.92	-0.0084
597.259	-0.0089
597.599	-0.0072
597.938	-0.01
598.277	-0.0066
598.616	-0.0077
598.955	-0.0064
599.295	-0.0085
599.634	-0.0084
599.973	-0.0087
600.312	-0.0097
600.65	-0.0081
600.989	-0.0043
601.328	0.0014
601.667	0.0016
602.005	-0.0028
602.344	-0.0068
602.683	-0.0079
603.021	-0.0059
603.36	-0.0076
603.698	-0.0079
604.037	-0.0086
604.375	-0.0036
604.713	-0.0049
605.052	-0.0058
605.39	-0.0118
605.728	-0.0116
606.066	-0.0088
606.404	-0.01
606.742	-0.0088
607.08	-0.0098
607.418	-0.0088
607.756	-0.0074
608.094	-0.0089
608.431	-0.0078
608.769	-0.0073
609.107	-0.0095
609.444	-0.0077
609.782	-0.0101
610.12	-0.0052
610.457	-0.006
610.794	-0.0082
611.132	-0.0101
611.469	-0.0118
611.806	-0.0104
612.144	-0.0099
612.481	-0.0098
612.818	-0.0039
613.155	-0.0062
613.492	-0.0021
613.829	-0.0066
614.166	-0.0031
614.503	-0.0046
614.84	-0.005
615.176	-0.0071
615.513	-0.0089
615.85	-0.0101
616.187	-0.0076
616.523	-0.0081
616.86	-0.0099
617.196	-0.0101
617.533	-0.0091
617.869	-0.0057
618.205	-0.0068
618.542	-0.0074
618.878	-0.0106
619.214	-0.01
619.55	-0.0094
619.886	-0.006
620.222	-0.0084
620.558	-0.0074
620.894	-0.0038
621.23	-0.0036
621.566	-0.0083
621.902	-0.0086
622.238	-0.0092
622.573	-0.0023
622.909	-0.0061
623.244	-0.0061
623.58	-0.0107
623.916	-0.0114
624.251	-0.007
624.586	-0.0049
624.922	-0.0068
625.257	-0.0108
625.592	-0.0099
625.927	-0.0059
626.263	-0.0056
626.598	-0.0088
626.933	-0.0088
627.268	-0.0079
627.603	-0.0081
627.938	-0.0124
628.272	-0.0136
628.607	-0.013
628.942	-0.0088
629.277	-0.0053
629.611	-0.0048
629.946	-0.0044
630.281	-0.0077
630.615	-0.0061
630.949	-0.0063
631.284	-0.0066
631.618	-0.0067
631.953	-0.0067
632.287	-0.0061
632.621	-0.0058
632.955	-0.0053
633.289	-0.0027
633.623	-0.0015
633.957	-0.003
634.291	-0.0054
634.625	-0.0074
634.959	-0.0089
635.293	-0.007
635.627	-0.0069
635.96	-0.0044
636.294	-0.0059
636.627	-0.0046
636.961	-0.0074
637.294	-0.011
637.628	-0.0114
637.961	-0.0088
638.295	-0.0079
638.628	-0.0082
638.961	-0.0094
639.294	-0.0024
639.628	-0.0009
639.961	0.0001
640.294	-0.0032
640.627	-0.0036
640.96	-0.0082
641.293	-0.0082
641.625	-0.0102
641.958	-0.0081
642.291	-0.0042
642.624	-0.0035
642.956	-0.0048
643.289	-0.0056
643.621	-0.0102
643.954	-0.0103
644.286	-0.0177
644.619	-0.0149
644.951	-0.0107
645.283	-0.0091
645.616	-0.011
645.948	-0.0144
646.28	-0.01
646.612	-0.0049
646.944	-0.003
647.276	-0.0012
647.608	-0.0054
647.94	-0.0061
648.272	-0.0072
648.603	-0.0041
648.935	-0.0006
649.267	-0.0025
649.598	-0.002
649.93	-0.0073
650.261	-0.0075
650.593	-0.005
650.924	0.0016
651.256	0.0014
651.587	-0.0034
651.918	-0.0056
652.25	-0.0054
652.581	-0.0053
652.912	-0.0084
653.243	-0.0097
653.574	-0.0121
653.905	-0.0129
654.236	-0.0149
654.567	-0.0084
654.897	-0.0076
655.228	-0.0058
655.559	-0.0069
655.89	-0.0056
656.22	-0.0023
656.551	-0.0049
656.881	-0.0047
657.212	-0.0082
657.542	-0.008
657.872	-0.0077
658.203	-0.0036
658.533	0.006
658.863	-0.0001
659.193	-0.0082
659.523	-0.0131
659.853	-0.0209
660.183	-0.0182
660.513	-0.0154
660.843	-0.0136
661.173	-0.0079
661.503	-0.0081
661.833	-0.0081
662.162	-0.0107
662.492	-0.0081
662.822	-0.0072
663.151	-0.0079
663.481	-0.0098
663.81	-0.0137
664.139	-0.0094
664.469	-0.0143
664.798	-0.0096
665.127	-0.0148
665.456	-0.0105
665.785	-0.009
666.114	-0.0113
666.443	-0.0104
666.772	-0.0108
667.101	-0.011
667.43	-0.0119
667.759	-0.0123
668.088	-0.0092
668.416	-0.0088
668.745	-0.0099
669.074	-0.0149
669.402	-0.0202
669.731	-0.0216
670.059	-0.0147
670.388	-0.005
670.716	-0.0054
671.044	-0.007
671.372	-0.0099
671.701	-0.0107
672.029	-0.0069
672.357	-0.0061
672.685	-0.0032
673.013	-0.0082
673.341	-0.0077
673.669	-0.0104
673.996	-0.0068
674.324	-0.0088
674.652	-0.0064
674.98	-0.0061
675.307	-0.0076
675.635	-0.0121
675.962	-0.0122
676.29	-0.0102
676.617	-0.0035
676.945	-0.0047
677.272	-0.0053
677.599	-0.0055
677.926	-0.007
678.253	-0.0031
678.581	-0.0049
678.908	-0.0067
679.235	-0.0094
679.561	-0.0081
679.888	-0.0047
680.215	-0.0051
680.542	-0.0024
680.869	-0.005
681.195	-0.0028
681.522	-0.0046
681.849	-0.0061
682.175	-0.0091
682.502	-0.0093
682.828	-0.0091
683.154	-0.0135
683.481	-0.0165
683.807	-0.015
684.133	-0.0126
684.459	-0.0117
684.785	-0.0094
685.111	-0.0118
685.437	-0.012
685.763	-0.0159
686.089	-0.0158
686.415	-0.0178
686.741	-0.017
687.067	-0.0101
687.392	-0.0098
687.718	-0.0082
688.043	-0.0072
688.369	-0.0062
688.694	-0.0054
689.02	-0.011
689.345	-0.006
689.67	-0.0121
689.996	-0.0084
690.321	-0.0137
690.646	-0.0091
690.971	-0.0112
691.296	-0.0094
691.621	-0.0088
691.946	-0.005
692.271	-0.0032
692.596	-0.0003
692.921	0.0017
693.245	0.0035
693.57	0.001
693.895	-0.0007
694.219	-0.0032
694.544	-0.0053
694.868	-0.0064
695.193	-0.009
695.517	-0.0067
695.841	-0.0088
696.166	-0.0096
696.49	-0.0146
696.814	-0.0137
697.138	-0.0137
697.462	-0.0089
697.786	-0.0067
698.11	-0.0054
698.434	-0.0087
698.758	-0.011
699.081	-0.0127
699.405	-0.0122
699.729	-0.0108
700.052	-0.0127
700.376	-0.0115
700.7	-0.0147
701.023	-0.014
701.346	-0.0153
701.67	-0.0129
701.993	-0.013
702.316	-0.0092
702.639	-0.0111
702.963	-0.0144
703.286	-0.0132
703.609	-0.0131
703.932	-0.0127
704.255	-0.0135
704.578	-0.0108
704.9	-0.003
705.223	-0.0054
705.546	-0.0045
705.868	-0.01
706.191	-0.0153
706.514	-0.0188
706.836	-0.0181
707.159	-0.0089
707.481	-0.0078
707.803	-0.0058
708.126	-0.0122
708.448	-0.0144
708.77	-0.0159
709.092	-0.0102
709.414	-0.0084
709.736	-0.0078
710.058	-0.01
710.38	-0.011
710.702	-0.0094
711.024	-0.0073
711.345	-0.0074
711.667	-0.0109
711.989	-0.0142
712.31	-0.0081
712.632	-0.006
712.953	-0.0023
713.275	-0.0046
713.596	0.0026
713.917	-0.0003
714.239	-0.005
714.56	-0.0108
714.881	-0.0106
715.202	-0.0096
715.523	-0.0118
715.844	-0.0094
716.165	-0.008
716.486	-0.0075
716.807	-0.0117
717.128	-0.0121
717.448	-0.0156
717.769	-0.0146
718.09	-0.0104
718.41	-0.0087
718.731	-0.0069
719.051	-0.0087
719.372	-0.0047
719.692	-0.0079
720.012	-0.0102
720.332	-0.0156
720.653	-0.0139
720.973	-0.0119
721.293	-0.0099
721.613	-0.0096
721.933	-0.0077
722.253	-0.0033
722.573	-0.0029
722.892	-0.0067
723.212	-0.018
723.532	-0.0211
723.851	-0.022
724.171	-0.0134
724.491	-0.0141
724.81	-0.0164
725.129	-0.0124
725.449	-0.0091
725.768	-0.0071
726.087	-0.0133
726.407	-0.0108
726.726	-0.0086
727.045	-0.0067
727.364	-0.0097
727.683	-0.0049
728.002	-0.0036
728.321	-0.0032
728.64	-0.009
728.958	-0.0083
729.277	-0.0124
729.596	-0.012
729.914	-0.0145
730.233	-0.0092
730.551	-0.0116
730.87	-0.0146
731.188	-0.0144
731.507	-0.0125
731.825	-0.009
732.143	-0.0132
732.461	-0.0108
732.779	-0.0131
733.097	-0.015
733.415	-0.0176
733.733	-0.0186
734.051	-0.0162
734.369	-0.0159
734.687	-0.0129
735.005	-0.0099
735.322	-0.0065
735.64	-0.0108
735.957	-0.0082
736.275	-0.0093
736.592	-0.0034
736.91	-0.0068
737.227	-0.0073
737.544	-0.0146
737.862	-0.0138
738.179	-0.0147
738.496	-0.005
738.813	-0.0072
739.13	-0.0124
739.447	-0.0145
739.764	-0.0164
740.081	-0.0146
740.398	-0.0157
740.714	-0.0132
741.031	-0.0097
741.348	-0.0087
741.664	-0.0067
741.981	-0.009
742.297	-0.0053
742.614	-0.0066
742.93	-0.0047
743.246	-0.0084
743.563	-0.0093
743.879	-0.0133
744.195	-0.0128
744.511	-0.0133
744.827	-0.0065
745.143	-0.0073
745.459	-0.0079
745.775	-0.0106
746.091	-0.0146
746.406	-0.0117
746.722	-0.0105
747.038	-0.0087
747.353	-0.0131
747.669	-0.0164
747.984	-0.017
748.3	-0.0143
748.615	-0.0148
748.93	-0.0136
749.246	-0.0139
749.561	-0.0117
749.876	-0.0076
750.191	-0.0113
750.506	-0.0133
750.821	-0.0138
751.136	-0.0108
751.451	-0.0044
751.766	-0.0063
752.08	-0.0081
752.395	-0.015
752.71	-0.0179
753.024	-0.013
753.339	-0.0078
753.653	-0.0026
753.968	-0.0085
754.282	-0.0118
754.596	-0.01
754.911	-0.0072
755.225	-0.0072
755.539	-0.0131
755.853	-0.0115
756.167	-0.0069
756.481	-0.007
756.795	-0.009
757.109	-0.0113
757.423	-0.0097
757.736	-0.0065
758.05	-0.0079
758.364	-0.0077
758.677	-0.0094
758.991	-0.0107
759.304	-0.0094
759.618	-0.0099
759.931	-0.0082
760.244	-0.0092
760.558	-0.0085
760.871	-0.0093
761.184	-0.0099
761.497	-0.0102
761.81	-0.0108
762.123	-0.0142
762.436	-0.0153
762.749	-0.017
763.062	-0.0121
763.374	-0.015
763.687	-0.0129
764	-0.016
764.312	-0.0106
764.625	-0.0092
764.937	-0.0117
765.25	-0.0144
765.562	-0.0143
765.874	-0.0117
766.186	-0.0124
766.499	-0.0146
766.811	-0.0145
767.123	-0.0158
767.435	-0.0132
767.747	-0.0122
768.059	-0.0093
768.37	-0.0112
768.682	-0.0122
768.994	-0.0194
769.306	-0.02
769.617	-0.0201
769.929	-0.0094
770.24	-0.0091
770.552	-0.0105
770.863	-0.0201
771.174	-0.0164
771.486	-0.0156
771.797	-0.0126
772.108	-0.0195
772.419	-0.0143
772.73	-0.0137
773.041	-0.0085
773.352	-0.0123
773.663	-0.0104
773.974	-0.0081
774.285	-0.0092
774.595	-0.0114
774.906	-0.0123
775.217	-0.0091
775.527	-0.0061
775.838	-0.0059
776.148	-0.008
776.458	-0.0075
776.769	-0.01
777.079	-0.0116
777.389	-0.0151
777.699	-0.0136
778.009	-0.013
778.319	-0.0094
778.629	-0.0068
778.939	-0.0008
779.249	0.0004
779.559	-0.0002
779.869	-0.0101
780.178	-0.0184
780.488	-0.0238
780.798	-0.0244
781.107	-0.0178
781.417	-0.022
781.726	-0.0201
782.035	-0.0247
782.345	-0.0182
782.654	-0.0165
782.963	-0.0117
783.272	-0.0135
783.581	-0.0134
783.89	-0.0175
784.199	-0.0132
784.508	-0.0178
784.817	-0.0188
785.126	-0.0263
785.434	-0.0212
785.743	-0.0163
786.052	-0.0123
786.36	-0.0154
786.669	-0.0194
786.977	-0.0228
787.285	-0.0231
787.594	-0.0196
787.902	-0.0132
788.21	-0.0114
788.518	-0.0099
788.826	-0.0089
789.135	-0.0054
789.442	-0.0061
789.75	-0.0059
790.058	-0.0126
790.366	-0.0145
790.674	-0.0213
790.981	-0.016
791.289	-0.0124
791.597	-0.0165
791.904	-0.0209
792.212	-0.0253
792.519	-0.0163
792.826	-0.0123
793.134	-0.0116
793.441	-0.0111
793.748	-0.0077
794.055	-0.0071
794.362	-0.0103
794.669	-0.0137
794.976	-0.0154
795.283	-0.0151
795.59	-0.0117
795.897	-0.0104
796.203	-0.0142
796.51	-0.0177
796.817	-0.0176
797.123	-0.0149
797.43	-0.0127
797.736	-0.0131
798.042	-0.0134
798.349	-0.0125
798.655	-0.0116
798.961	-0.0137
799.267	-0.0185
799.573	-0.0161
799.879	-0.0136
800.185	-0.0102
800.491	-0.012
800.797	-0.0079
801.103	-0.0108
801.408	-0.0058
801.714	-0.0026
802.02	-0.0001
802.325	-0.0045
802.631	-0.0191
802.936	-0.0234
803.242	-0.0265
803.547	-0.0198
803.852	-0.0228
804.157	-0.0189
804.462	-0.0213
804.768	-0.0147
805.073	-0.0172
805.378	-0.0135
805.682	-0.019
805.987	-0.0182
806.292	-0.0141
806.597	-0.0026
806.902	-0.0042
807.206	-0.0088
807.511	-0.0178
807.815	-0.0196
808.12	-0.0195
808.424	-0.0183
808.728	-0.0164
809.033	-0.0156
809.337	-0.0145
809.641	-0.0104
809.945	-0.0099
810.249	-0.0096
810.553	-0.0126
810.857	-0.0111
811.161	-0.0113
811.465	-0.0128
811.768	-0.0187
812.072	-0.0246
812.376	-0.0217
812.679	-0.024
812.983	-0.0212
813.286	-0.0245
813.59	-0.0206
813.893	-0.0121
814.196	-0.0113
814.499	-0.0109
814.803	-0.0163
815.106	-0.0196
815.409	-0.0131
815.712	-0.0124
816.015	-0.0065
816.318	-0.0111
816.62	-0.0174
816.923	-0.0161
817.226	-0.0135
817.528	-0.0085
817.831	-0.0144
818.133	-0.0146
818.436	-0.0093
818.738	-0.0022
819.041	-0.0048
819.343	-0.0036
819.645	-0.0069
819.947	-0.0058
820.249	-0.0181
820.551	-0.0184
820.853	-0.0168
821.155	-0.0193
821.457	-0.0155
821.759	-0.0177
822.061	-0.006
822.362	-0.0087
822.664	-0.0139
822.966	-0.0104
823.267	-0.0123
823.569	-0.01
823.87	-0.0228
824.171	-0.0187
824.473	-0.0162
824.774	-0.0078
825.075	-0.0113
825.376	-0.0082
825.677	-0.0025
825.978	-0.0029
826.279	-0.0053
826.58	-0.0081
826.881	-0.0119
827.181	-0.0107
827.482	-0.0122
827.783	-0.0143
828.083	-0.0206
828.384	-0.0268
828.684	-0.0252
828.985	-0.019
829.285	-0.0183
829.585	-0.0193
829.885	-0.0216
830.185	-0.0241
830.486	-0.018
830.786	-0.019
831.086	-0.0138
831.385	-0.0165
831.685	-0.0141
831.985	-0.0239
832.285	-0.0203
832.585	-0.0163
832.884	-0.0038
833.184	-0.0128
833.483	-0.0224
833.783	-0.0238
834.082	-0.0181
834.381	-0.0133
834.681	-0.0193
834.98	-0.0187
835.279	-0.015
835.578	-0.0063
835.877	-0.0025
836.176	-0.0037
836.475	0.0001
836.774	-0.0011
837.072	-0.0073
837.371	-0.0177
837.67	-0.0187
837.968	-0.0177
838.267	-0.0163
838.565	-0.0219
838.864	-0.0195
839.162	-0.0305
839.46	-0.0397
839.759	-0.0353
840.057	-0.0276
840.355	-0.0132
840.653	-0.0155
840.951	-0.0151
841.249	-0.0083
841.547	-0.0071
841.845	0.0027
842.142	-0.0051
842.44	-0.018
842.738	-0.0257
843.035	-0.0356
843.333	-0.0279
843.63	-0.0302
843.928	-0.009
844.225	-0.0111
844.522	-0.0067
844.82	-0.0215
845.117	-0.012
845.414	-0.0149
845.711	-0.0078
846.008	-0.0064
846.305	-0.0181
846.602	-0.0146
846.898	-0.0265
847.195	-0.0204
847.492	-0.0278
847.788	-0.021
848.085	-0.009
848.382	0.0003
848.678	-0.0149
848.974	-0.0202
849.271	-0.0245
849.567	-0.0128
849.863	-0.015
850.159	-0.0277
850.455	-0.0222
850.751	-0.022
851.047	-0.0058
851.343	-0.0147
851.639	-0.0116
851.935	-0.016
852.23	-0.013
852.526	-0.0131
852.822	-0.013
853.117	-0.0147
853.413	-0.0154
853.708	-0.0251
854.003	-0.0045
854.299	0.0065
854.594	0.0054
854.889	-0.0236
855.184	-0.0334
855.479	-0.024
855.774	-0.0029
856.069	-0.0052
856.364	-0.0179
856.659	-0.0274
856.954	-0.0154
857.248	-0.0129
857.543	-0.0125
857.837	-0.0317
858.132	-0.0244
858.426	-0.0429
858.721	-0.0422
859.015	-0.0472
859.309	-0.0267
859.604	-0.0176
859.898	-0.0027
860.192	-0.0082
860.486	-0.0065
860.78	-0.0149
861.074	-0.0104
861.367	-0.0118
861.661	-0.012
861.955	-0.0166
862.248	-0.0158
862.542	-0.0279
862.836	-0.0185
863.129	-0.0303
863.422	-0.0212
863.716	-0.0422
864.009	-0.0156
864.302	-0.0216
864.595	-0.009
864.889	-0.0277
865.182	-0.0244
865.475	-0.0287
865.767	-0.0305
866.06	-0.0223
866.353	-0.0261
866.646	-0.0084
866.938	-0.0323
867.231	-0.0217
867.524	-0.0359
867.816	0.0045
868.109	0.0142
868.401	0.0171
868.693	-0.0176
868.985	-0.032
869.278	-0.0311
869.57	-0.0173
869.862	-0.0262
870.154	-0.0402
870.446	-0.0531
870.738	-0.042
871.029	-0.0309
871.321	-0.0049
871.613	-0.0047
871.904	-0.0119
872.196	-0.02
872.487	-0.0025
872.779	-0.0049
873.07	-0.0148
873.362	-0.0059
873.653	0.02
873.944	0.0102
874.235	-0.009
874.526	-0.0139
874.817	-0.0022
875.108	0.005
875.399	-0.0056
875.69	0.021
875.981	0.0046
876.271	0.0041
876.562	-0.0046
876.853	-0.0096
877.143	-0.027
877.434	-0.0382
877.724	-0.0548
878.014	-0
878.305	-0.0034
878.595	0.0318
878.885	-0.0043
879.175	-0.0023
879.465	-0.0127
879.755	0.0072
880.045	0.0194
880.335	0.027
880.624	0.0172
880.914	0.0172
