Data from Blank3_080717_1a_Absorbance_10-16-16-869.txt Node
Date: Fri Aug 11 10:16:16 MDT 2017
User: Tank Lab
Spectrometer: FLMS01220
Trigger mode: 0
Integration Time (sec): 1.000000E-1
Scans to average: 10
Electric dark correction enabled: true
Nonlinearity correction enabled: false
Boxcar width: 1
XAxis mode: Wavelengths
Number of Pixels in Spectrum: 2048
>>>>>Begin Spectral Data<<<<<
179.47	0.07
179.856	0.07
180.241	0.3231
180.626	0.1524
181.011	-0
181.396	-0.6225
181.781	-0.3858
182.166	0.1316
182.551	-0
182.936	-0
183.321	-0
183.706	0.1241
184.091	-0
184.476	-0.5699
184.86	-0.0904
185.245	-0.024
185.63	-0
186.015	0.4892
186.399	-0.015
186.784	-0
187.169	-0
187.553	-0.3644
187.938	-0.004
188.322	0.054
188.707	-0.0225
189.091	-0.0314
189.475	-0.0459
189.86	-0.0242
190.244	-0.0222
190.629	-0.0378
191.013	-0.0168
191.397	-0.0147
191.781	0.0161
192.165	0.0272
192.55	0.0411
192.934	0.0223
193.318	0.0086
193.702	0.0044
194.086	0.0129
194.47	0.0162
194.854	0.0174
195.238	0.0166
195.622	0.0128
196.006	0.0082
196.389	0.0082
196.773	0.0122
197.157	0.0162
197.541	0.0135
197.924	0.011
198.308	0.009
198.692	0.0108
199.075	0.0062
199.459	0.0065
199.843	0.0072
200.226	0.0075
200.61	0.0091
200.993	0.0032
201.376	0.0066
201.76	0.0063
202.143	0.0077
202.527	0.0099
202.91	0.0099
203.293	0.0106
203.676	0.006
204.059	0.0065
204.443	0.0063
204.826	0.008
205.209	0.008
205.592	0.0099
205.975	0.0108
206.358	0.0063
206.741	0.0027
207.124	0.0018
207.507	0.005
207.89	0.0075
208.273	0.0062
208.655	0.0028
209.038	0.0009
209.421	-0
209.804	0.001
210.186	0.0029
210.569	0.0037
210.951	0.0045
211.334	0.0029
211.717	0.0024
212.099	0.0013
212.482	0.0018
212.864	0.0025
213.246	0.0027
213.629	-0.0002
214.011	-0.0006
214.393	0.001
214.776	0.0018
215.158	0.0019
215.54	-0.0002
215.922	0.0016
216.305	0.0003
216.687	0
217.069	-0.0002
217.451	0.001
217.833	0.0021
218.215	0.0014
218.597	0.0006
218.979	0.0021
219.361	0.0027
219.742	0.0018
220.124	0.0019
220.506	0.0004
220.888	0.0025
221.27	0.0005
221.651	0.0013
222.033	0.0026
222.415	0.0024
222.796	0.003
223.178	0.0017
223.559	0.0038
223.941	0.0042
224.322	0.0045
224.704	0.0043
225.085	0.0053
225.466	0.0054
225.848	0.0038
226.229	0.0013
226.61	0.0012
226.992	0.0017
227.373	0.0026
227.754	0.0014
228.135	0.0013
228.516	0.0018
228.897	0.0031
229.278	0.0002
229.659	-0.0002
230.04	-0.0002
230.421	0.0019
230.802	0.0014
231.183	0.0013
231.564	0.0034
231.944	0.0025
232.325	0.0016
232.706	0.0012
233.087	0.0025
233.467	0.0023
233.848	0.0011
234.229	0.0007
234.609	0.0011
234.99	0.0004
235.37	0.001
235.751	0.0025
236.131	0.0029
236.511	0.003
236.892	0.0012
237.272	0.0017
237.652	0.0016
238.033	0.0011
238.413	0.0013
238.793	0.0007
239.173	0.0016
239.553	0.0009
239.933	0.0019
240.313	0.0031
240.694	0.0044
241.074	0.0045
241.453	0.0038
241.833	0.0026
242.213	0.0019
242.593	0.0021
242.973	0.0025
243.353	0.0023
243.732	0.0021
244.112	0.0005
244.492	-0.0006
244.872	-0.0001
245.251	0.0015
245.631	0.0024
246.01	0.0004
246.39	-0.0009
246.769	-0.0008
247.149	-0.0004
247.528	0.0002
247.908	-0.0001
248.287	0.0008
248.666	0.0013
249.045	0.0013
249.425	0.0016
249.804	0.0011
250.183	-0
250.562	-0.0003
250.941	0.0007
251.32	0.0039
251.699	0.0029
252.078	0.0015
252.457	-0.0002
252.836	0.0001
253.215	0.0017
253.594	0.0014
253.973	0.0018
254.352	0.0012
254.731	0.0009
255.109	0.0009
255.488	-0.0002
255.867	-0.0014
256.245	-0.0014
256.624	-0.0018
257.002	-0.0008
257.381	-0.0007
257.759	0.0003
258.138	0.0001
258.516	-0.0003
258.895	-0.0001
259.273	0.001
259.651	0.0017
260.03	0.0019
260.408	0.0018
260.786	0.0007
261.164	0.0001
261.542	-0.0009
261.921	-0.0009
262.299	-0.002
262.677	-0.0008
263.055	-0.0015
263.433	-0.0004
263.811	-0.0004
264.188	0.0007
264.566	0.0016
264.944	0.0008
265.322	-0
265.7	-0.0005
266.077	-0.0022
266.455	-0.0009
266.833	-0.0016
267.21	-0.0007
267.588	-0.0015
267.966	-0.0013
268.343	-0.0023
268.721	-0.0011
269.098	0.0006
269.475	0.0027
269.853	0.0016
270.23	0.0005
270.607	0.0017
270.985	-0.0002
271.362	-0.0007
271.739	-0.0027
272.116	-0.0018
272.494	-0.0014
272.871	-0.0028
273.248	-0.0028
273.625	-0.0031
274.002	-0.0023
274.379	-0.0014
274.756	-0.0011
275.132	-0.0004
275.509	-0
275.886	-0.0012
276.263	-0.0021
276.64	-0.0019
277.016	-0.0015
277.393	-0.0012
277.77	-0.0018
278.146	-0.0017
278.523	-0.0022
278.899	-0.0026
279.276	-0.0016
279.652	-0.0004
280.029	0.0002
280.405	-0.0004
280.782	0.0003
281.158	0.0005
281.534	0.0014
281.91	0.0009
282.287	0.0006
282.663	-0.0007
283.039	-0.0012
283.415	-0.0022
283.791	-0.0024
284.167	-0.002
284.543	0.0004
284.919	0.0003
285.295	0.0014
285.671	-0.0008
286.047	-0.0008
286.423	-0.001
286.799	-0.0005
287.174	-0.0005
287.55	-0.001
287.926	-0.0014
288.301	-0.0011
288.677	-0.0014
289.053	-0.0006
289.428	-0.0004
289.804	-0.0011
290.179	-0.002
290.555	-0.002
290.93	-0.0027
291.305	-0.0024
291.681	-0.0012
292.056	0.0004
292.431	0.0005
292.806	-0.0002
293.182	0.0004
293.557	0.0015
293.932	0.0005
294.307	-0.0005
294.682	-0.002
295.057	-0.0022
295.432	-0.0007
295.807	-0.0003
296.182	0.0003
296.557	-0.0009
296.932	0.0004
297.306	0.0017
297.681	0.0019
298.056	0.0006
298.43	-0.0008
298.805	-0.0013
299.18	-0.0012
299.554	-0.0005
299.929	-0.0003
300.303	-0.0004
300.678	-0.0012
301.052	-0.0011
301.427	-0.0008
301.801	-0.001
302.175	-0.0018
302.55	-0.0017
302.924	-0.0001
303.298	0.0007
303.672	-0.0001
304.046	-0
304.421	0.0005
304.795	0.0027
305.169	0.0014
305.543	0.001
305.917	-0.0007
306.291	0.0003
306.664	-0.0009
307.038	-0.0011
307.412	-0.0012
307.786	-0.0004
308.16	0
308.533	-0.0009
308.907	0.0003
309.281	0.0007
309.654	0.0007
310.028	-0.0012
310.401	-0.0019
310.775	-0.0013
311.148	0.0003
311.522	0.0005
311.895	0.0009
312.268	0.0011
312.642	0.002
313.015	0.0025
313.388	0.0023
313.761	0.0027
314.135	-0.0003
314.508	-0.0004
314.881	-0.0016
315.254	-0.0003
315.627	-0.0026
316	-0.0009
316.373	-0.0006
316.746	0.0012
317.118	-0.0013
317.491	-0.0026
317.864	-0
318.237	0.0016
318.61	0.0018
318.982	0.0006
319.355	0.0005
319.727	0.001
320.1	-0.0001
320.473	-0.0013
320.845	-0.0024
321.218	-0.0037
321.59	-0.0028
321.962	-0.0016
322.335	-0.0024
322.707	-0.0027
323.079	-0.0015
323.452	-0.0002
323.824	0.0004
324.196	-0.0008
324.568	0.0002
324.94	-0.0021
325.312	-0.0021
325.684	-0.0015
326.056	-0.0001
326.428	-0.0001
326.8	-0
327.172	0.0002
327.544	0.0008
327.915	-0.0021
328.287	-0.0003
328.659	-0.001
329.031	0.0005
329.402	0.0004
329.774	0.0008
330.145	0.0002
330.517	-0.0002
330.888	-0.0002
331.26	0.0011
331.631	0.0005
332.003	-0.0011
332.374	-0.002
332.745	-0.0012
333.117	-0.0002
333.488	-0.0003
333.859	0.0004
334.23	0.0016
334.601	0.0014
334.972	-0.0008
335.343	-0.0021
335.714	-0.0026
336.085	-0.0041
336.456	-0.0043
336.827	-0.0031
337.198	-0.0017
337.569	-0.0026
337.94	-0.0023
338.31	-0.0005
338.681	0.0016
339.052	0.0018
339.422	0.0018
339.793	0.0024
340.164	0.0016
340.534	0.0016
340.905	0.0011
341.275	0.001
341.645	-0.0003
342.016	-0.0017
342.386	-0.0025
342.756	-0.0027
343.127	-0.0013
343.497	-0.0008
343.867	-0.0018
344.237	-0.0029
344.607	-0.0016
344.977	0.0008
345.347	-0.0003
345.717	-0.0009
346.087	-0.0031
346.457	-0.0021
346.827	-0.0032
347.197	-0.0024
347.567	-0.0017
347.936	-0.0007
348.306	0.0013
348.676	0.0012
349.046	0.0007
349.415	0.0002
349.785	0.0006
350.154	0.0016
350.524	0.0015
350.893	0.0007
351.263	-0.0002
351.632	-0.0011
352.001	-0.0006
352.371	0.0001
352.74	-0.001
353.109	-0.001
353.478	-0.0005
353.847	0.0012
354.217	0.0024
354.586	0.001
354.955	-0.0005
355.324	-0.0018
355.693	-0.0019
356.062	-0.0035
356.43	-0.0023
356.799	-0.0021
357.168	-0.0016
357.537	-0.004
357.906	-0.0028
358.274	-0.0004
358.643	0.0005
359.011	0.002
359.38	0.0019
359.749	0.0024
360.117	0.0005
360.486	0.0012
360.854	0.0015
361.222	0.0016
361.591	-0.0019
361.959	-0.0036
362.327	-0.0042
362.695	-0.0023
363.064	-0.0014
363.432	-0.0028
363.8	-0.0036
364.168	-0.0034
364.536	-0.0021
364.904	-0.0017
365.272	-0.0016
365.64	-0.0026
366.008	-0.0023
366.376	-0.0018
366.743	0.0005
367.111	-0.0006
367.479	-0.0021
367.847	-0.0053
368.214	-0.0029
368.582	-0.0015
368.949	-0.0001
369.317	-0.0026
369.684	-0.0028
370.052	-0.0019
370.419	0.0006
370.787	-0.0003
371.154	-0.0013
371.521	-0.0014
371.889	-0.0024
372.256	-0.0019
372.623	-0.0022
372.99	0.0008
373.357	-0.0002
373.724	-0.0005
374.091	-0.0025
374.458	-0.0013
374.825	-0.0014
375.192	-0.0017
375.559	-0.0013
375.926	-0.0008
376.293	-0.0025
376.659	-0.0014
377.026	-0.0011
377.393	0.0022
377.759	0.0012
378.126	0.0008
378.492	0.0002
378.859	0.0009
379.225	0.0008
379.592	0.0005
379.958	-0.0001
380.325	-0.0011
380.691	-0.0009
381.057	0.0004
381.423	0.0008
381.79	0.0018
382.156	-0.0005
382.522	0.0003
382.888	0.0007
383.254	-0.0005
383.62	0.0001
383.986	-0.0028
384.352	0.0006
384.718	-0.0009
385.084	0.001
385.449	-0.0004
385.815	0.0005
386.181	0.0001
386.547	-0.0007
386.912	-0.0007
387.278	-0.0014
387.643	-0.002
388.009	-0.0028
388.374	-0.0029
388.74	-0.0029
389.105	-0.0021
389.471	-0.0011
389.836	0.001
390.201	-0.0011
390.566	-0.0021
390.932	-0.0048
391.297	-0.0044
391.662	-0.0038
392.027	-0.0008
392.392	-0.0002
392.757	0.0013
393.122	-0.0002
393.487	0.0003
393.852	0.0011
394.217	0.0009
394.582	0.0005
394.946	-0.0016
395.311	-0.0012
395.676	-0.0014
396.04	-0.003
396.405	-0.0033
396.77	-0.0016
397.134	0.0029
397.499	0.0034
397.863	0.0015
398.227	-0.0031
398.592	-0.0027
398.956	-0.0028
399.32	-0.0027
399.685	-0.002
400.049	-0.0006
400.413	0.0006
400.777	-0.0019
401.141	-0.0026
401.505	-0.0012
401.869	0.0011
402.233	0.0007
402.597	-0.0019
402.961	-0.0046
403.325	-0.0024
403.689	-0.0008
404.053	0.0003
404.416	-0.0021
404.78	-0.0015
405.144	-0.0035
405.507	-0.0024
405.871	-0.0029
406.234	0.001
406.598	0.0004
406.961	0.0024
407.325	0.0013
407.688	0.0003
408.051	-0.0011
408.415	-0.0014
408.778	-0.0012
409.141	-0.0023
409.504	-0.0019
409.867	-0.0006
410.23	0.0014
410.593	0.0015
410.956	0.0004
411.319	-0.0006
411.682	-0.002
412.045	-0.002
412.408	-0
412.771	0.0008
413.134	0.0009
413.496	-0.0027
413.859	-0.0025
414.222	-0.0038
414.584	-0.0013
414.947	-0.003
415.309	-0.0007
415.672	-0.0014
416.034	0.0003
416.396	-0.001
416.759	-0.0012
417.121	-0.0011
417.483	0.0019
417.846	0.0035
418.208	0.0024
418.57	0.0014
418.932	0.0014
419.294	0.0033
419.656	0.0018
420.018	0.0015
420.38	-0.0012
420.742	-0.0005
421.104	-0.0028
421.466	-0.0004
421.827	0.0008
422.189	0.0025
422.551	0.0004
422.912	-0.003
423.274	-0.0065
423.636	-0.0063
423.997	-0.0031
424.359	-0.0011
424.72	0.0007
425.081	-0.0013
425.443	-0.0014
425.804	-0.0031
426.165	-0.0027
426.527	-0.0013
426.888	-0.0003
427.249	-0.0026
427.61	-0.0054
427.971	-0.0049
428.332	-0.0029
428.693	0.0013
429.054	-0
429.415	-0.0001
429.776	-0.0011
430.137	-0.0005
430.498	-0.0023
430.858	-0.0047
431.219	-0.0039
431.58	-0.0009
431.94	0.0001
432.301	-0.0011
432.661	-0.0013
433.022	-0.0018
433.382	-0.0001
433.743	0.001
434.103	0.0041
434.463	0.0038
434.824	0.0021
435.184	0.0002
435.544	-0.0012
435.904	-0.0005
436.264	-0.0017
436.624	-0.0016
436.985	-0.0034
437.345	0.0005
437.704	0.0012
438.064	0.0034
438.424	0.0001
438.784	0.0012
439.144	-0.0007
439.504	-0.0029
439.863	-0.0044
440.223	-0.0047
440.583	-0.0005
440.942	0.0013
441.302	0.0023
441.661	-0.0004
442.021	-0.0016
442.38	0.0001
442.739	0.0009
443.099	-0.0017
443.458	-0.0013
443.817	-0.0005
444.176	0.0004
444.536	-0.0031
444.895	-0.0056
445.254	-0.0057
445.613	-0.0055
445.972	-0.0063
446.331	-0.0037
446.69	-0.0038
447.049	-0.0018
447.407	-0.0035
447.766	-0.0043
448.125	-0.0056
448.484	-0.0072
448.842	-0.0055
449.201	-0.0035
449.559	-0.0026
449.918	-0.0044
450.276	-0.0051
450.635	-0.0032
450.993	-0.0023
451.352	-0.0015
451.71	-0.0023
452.068	-0.0015
452.426	-0.0033
452.785	-0.0026
453.143	-0.0019
453.501	-0.0029
453.859	-0.0044
454.217	-0.0065
454.575	-0.004
454.933	-0.0013
455.291	-0.0003
455.649	0.0018
456.006	-0.0007
456.364	0.0014
456.722	-0.0004
457.079	0.0009
457.437	-0.0005
457.795	0.0008
458.152	-0.0018
458.51	-0.0006
458.867	-0.0011
459.225	0.0009
459.582	-0.001
459.939	-0.0024
460.297	-0.0003
460.654	0.0003
461.011	0.0021
461.368	-0.0019
461.725	-0.0019
462.082	-0.0075
462.44	-0.005
462.797	-0.0053
463.153	0.0014
463.51	-0
463.867	-0.0002
464.224	0.0007
464.581	0.0012
464.938	0.0026
465.294	0.0006
465.651	-0.001
466.008	-0.0051
466.364	-0.0067
466.721	-0.0057
467.077	-0.0042
467.434	-0.0039
467.79	-0.0027
468.146	-0.0013
468.503	-0.0031
468.859	-0.0038
469.215	-0.0031
469.571	-0.0028
469.927	-0.0041
470.284	-0.0059
470.64	-0.0049
470.996	-0.004
471.352	-0.0031
471.707	-0.003
472.063	-0.0024
472.419	0.0003
472.775	0.003
473.131	0.0016
473.486	-0.0001
473.842	-0.0021
474.198	0.0003
474.553	0.0018
474.909	0.0014
475.264	0
475.62	-0.0016
475.975	-0.0009
476.331	0.0004
476.686	-0.0032
477.041	-0.0037
477.396	-0.0053
477.752	-0.0001
478.107	-0.0013
478.462	0
478.817	-0.0026
479.172	-0.0023
479.527	-0.0019
479.882	0.0006
480.237	-0.0007
480.591	-0.0033
480.946	-0.0049
481.301	-0.0022
481.656	-0.0017
482.01	-0.001
482.365	-0.0031
482.72	-0.0043
483.074	-0.0037
483.429	-0.0015
483.783	0.0007
484.137	-0.0008
484.492	-0.002
484.846	-0.0022
485.2	-0.0001
485.555	-0.0009
485.909	-0.0009
486.263	-0.0009
486.617	0.0004
486.971	-0.0006
487.325	-0.0012
487.679	-0.0027
488.033	-0.0031
488.387	-0.0031
488.741	-0.0017
489.094	-0.0014
489.448	-0.0028
489.802	-0.0033
490.156	-0.0012
490.509	-0.0003
490.863	-0.0018
491.216	-0.0047
491.57	-0.007
491.923	-0.0048
492.277	-0.0009
492.63	-0.0002
492.983	-0.0015
493.337	-0.0038
493.69	-0.0027
494.043	-0.0018
494.396	-0.0032
494.749	-0.0004
495.102	-0.0023
495.455	-0.0023
495.808	-0.0057
496.161	-0.0025
496.514	-0.0011
496.867	-0.0002
497.22	-0.001
497.572	-0.0015
497.925	-0.0001
498.278	-0.0015
498.63	-0.0015
498.983	-0.0021
499.335	-0.0032
499.688	-0.0032
500.04	-0.0053
500.393	-0.0033
500.745	-0.0038
501.097	-0.0027
501.449	-0.0033
501.802	-0.0038
502.154	-0.0059
502.506	-0.006
502.858	-0.0061
503.21	-0.0048
503.562	-0.0041
503.914	-0.0016
504.266	-0.0009
504.618	0.0006
504.969	-0.0008
505.321	-0.0003
505.673	-0.0026
506.025	-0.001
506.376	-0.0007
506.728	-0.0005
507.079	-0.0042
507.431	-0.0056
507.782	-0.0055
508.134	-0.0037
508.485	-0.002
508.836	-0.0032
509.188	-0.0006
509.539	-0.0016
509.89	0.0001
510.241	-0.0026
510.592	-0.0028
510.943	-0.0051
511.294	-0.0062
511.645	-0.0058
511.996	-0.0025
512.347	-0.0018
512.698	-0.0039
513.049	-0.0088
513.399	-0.0065
513.75	-0.0029
514.101	0.0002
514.451	-0.0012
514.802	-0.0017
515.152	-0.0015
515.503	-0.0015
515.853	-0.0036
516.203	-0.0033
516.554	-0.0004
516.904	-0.0003
517.254	0.0006
517.604	-0.0006
517.955	0.0023
518.305	0.0005
518.655	-0.002
519.005	-0.006
519.355	-0.0045
519.705	-0.0027
520.055	-0.0024
520.404	-0.0041
520.754	-0.0056
521.104	-0.0056
521.454	-0.0052
521.803	-0.0031
522.153	-0.0027
522.502	0.0003
522.852	0.001
523.201	0.0016
523.551	-0.0038
523.9	-0.0026
524.249	-0.004
524.599	-0.0022
524.948	-0.0059
525.297	-0.0034
525.646	-0.0033
525.995	-0.002
526.344	-0.001
526.694	-0
527.042	0.0031
527.391	0.0004
527.74	0.0014
528.089	-0.0023
528.438	0.0005
528.787	-0.0013
529.135	-0.0042
529.484	-0.0047
529.833	-0.0046
530.181	0.0001
530.53	-0.0017
530.878	-0.0014
531.227	-0.0009
531.575	-0.0017
531.923	-0.0022
532.271	-0.0038
532.62	-0.0027
532.968	-0.0023
533.316	-0.0043
533.664	-0.004
534.012	-0.0038
534.36	-0.0049
534.708	-0.004
535.056	-0.003
535.404	0.0006
535.752	-0.0004
536.1	-0.0039
536.447	-0.0071
536.795	-0.0053
537.143	-0.0036
537.49	-0.0004
537.838	-0.0037
538.185	-0.0022
538.533	-0.0045
538.88	-0.0026
539.228	-0.0079
539.575	-0.0044
539.922	-0.0018
540.269	0.0034
540.617	0.002
540.964	-0.0007
541.311	-0.0039
541.658	-0.0046
542.005	-0.0055
542.352	-0.0031
542.699	-0.005
543.045	-0.005
543.392	-0.0046
543.739	-0.0021
544.086	-0.0022
544.432	-0.0004
544.779	-0.0018
545.126	-0.0013
545.472	-0.0051
545.819	-0.0059
546.165	-0.009
546.512	-0.0093
546.858	-0.0088
547.204	-0.0067
547.55	-0.0046
547.897	-0.0045
548.243	-0.0057
548.589	-0.0117
548.935	-0.0101
549.281	-0.0048
549.627	0.0007
549.973	0.0012
550.319	-0.0022
550.665	-0.0018
551.01	-0.0052
551.356	-0.003
551.702	-0.0057
552.048	-0.0037
552.393	-0.0058
552.739	-0.0037
553.084	-0.0065
553.43	-0.005
553.775	-0.0032
554.12	0.0006
554.466	-0.0003
554.811	-0.0017
555.156	-0.004
555.502	-0.0067
555.847	-0.0061
556.192	-0.0061
556.537	-0.0045
556.882	-0.004
557.227	-0.0038
557.572	-0.0053
557.917	-0.0087
558.261	-0.0065
558.606	-0.0035
558.951	-0.0037
559.295	-0.0051
559.64	-0.0074
559.985	-0.0012
560.329	-0.0007
560.674	-0.0011
561.018	-0.0057
561.363	-0.0058
561.707	-0.0044
562.051	-0.0022
562.395	-0.0045
562.74	-0.0056
563.084	-0.0093
563.428	-0.0086
563.772	-0.0082
564.116	-0.0057
564.46	-0.0079
564.804	-0.009
565.148	-0.0083
565.492	-0.0055
565.835	-0.0056
566.179	-0.008
566.523	-0.0092
566.866	-0.0067
567.21	-0.0095
567.554	-0.0096
567.897	-0.0107
568.24	-0.0033
568.584	-0.0024
568.927	-0.0011
569.271	-0.0042
569.614	-0.0019
569.957	0.0003
570.3	-0.0019
570.643	-0.0024
570.986	-0.0068
571.329	-0.0026
571.672	-0.0029
572.015	-0.002
572.358	-0.0036
572.701	-0.0043
573.044	-0.0039
573.387	-0.0035
573.729	-0.0019
574.072	-0.0024
574.414	-0.0032
574.757	-0.0043
575.099	-0.0042
575.442	-0.0045
575.784	-0.0047
576.127	-0.0016
576.469	-0.0011
576.811	0.0004
577.153	-0.0045
577.496	-0.0063
577.838	-0.0087
578.18	-0.0087
578.522	-0.0071
578.864	-0.005
579.206	-0.0017
579.548	-0.0031
579.889	-0.0034
580.231	-0.0015
580.573	-0.0019
580.915	-0.0023
581.256	-0.006
581.598	-0.0062
581.939	-0.0058
582.281	-0.0058
582.622	-0.0031
582.964	-0.0062
583.305	-0.0039
583.646	-0.0024
583.988	0.0013
584.329	-0.0016
584.67	-0.0032
585.011	-0.0064
585.352	-0.0049
585.693	-0.006
586.034	-0.0018
586.375	-0.0024
586.716	-0.0039
587.057	-0.0086
587.398	-0.0084
587.738	-0.0066
588.079	-0.0039
588.42	-0.0039
588.76	-0.006
589.101	-0.0078
589.441	-0.0053
589.782	-0.0018
590.122	-0.0022
590.463	-0.0032
590.803	-0.0045
591.143	-0.0078
591.483	-0.0107
591.823	-0.0106
592.164	-0.0045
592.504	-0.003
592.844	-0.0046
593.184	-0.007
593.523	-0.0105
593.863	-0.0095
594.203	-0.0082
594.543	-0.0048
594.883	-0.005
595.222	-0.0025
595.562	-0.002
595.901	-0.0026
596.241	-0.005
596.58	-0.0067
596.92	-0.0079
597.259	-0.0082
597.599	-0.0058
597.938	-0.0051
598.277	-0.0073
598.616	-0.0077
598.955	-0.0073
599.295	-0.0058
599.634	-0.0022
599.973	-0.0052
600.312	-0.0036
600.65	-0.0062
600.989	0.0002
601.328	0.0014
601.667	-0.0018
602.005	-0.0057
602.344	-0.0075
602.683	-0.0053
603.021	-0.0042
603.36	-0.0055
603.698	-0.0067
604.037	-0.0091
604.375	-0.0076
604.713	-0.005
605.052	-0.0019
605.39	-0.0015
605.728	-0.0013
606.066	-0.003
606.404	-0.0036
606.742	-0.006
607.08	-0.0072
607.418	-0.006
607.756	-0.0038
608.094	-0.0012
608.431	-0.0034
608.769	-0.0058
609.107	-0.0059
609.444	-0.0059
609.782	-0.0031
610.12	-0.0049
610.457	-0.0033
610.794	-0.0024
611.132	-0.0007
611.469	-0.0027
611.806	-0.0079
612.144	-0.0093
612.481	-0.0091
612.818	-0.0062
613.155	-0.0068
613.492	-0.0062
613.829	-0.0054
614.166	-0.0048
614.503	-0.0053
614.84	-0.0055
615.176	-0.0051
615.513	-0.0033
615.85	-0.0032
616.187	-0.0012
616.523	-0.0025
616.86	-0.0016
617.196	-0.0056
617.533	-0.0049
617.869	-0.0065
618.205	-0.0057
618.542	-0.0098
618.878	-0.0093
619.214	-0.0064
619.55	-0.0001
619.886	-0.0014
620.222	-0.0016
620.558	-0.0011
620.894	-0.0011
621.23	-0.0042
621.566	-0.0074
621.902	-0.006
622.238	-0.0035
622.573	-0.0058
622.909	-0.0091
623.244	-0.0133
623.58	-0.0129
623.916	-0.0085
624.251	-0.0024
624.586	-0.0003
624.922	-0.0025
625.257	-0.0079
625.592	-0.0124
625.927	-0.0138
626.263	-0.0119
626.598	-0.0097
626.933	-0.0111
627.268	-0.0076
627.603	-0.0061
627.938	-0.0015
628.272	-0.0009
628.607	0.0026
628.942	-0.0012
629.277	-0.0042
629.611	-0.0036
629.946	-0.0038
630.281	-0.0008
630.615	-0.0077
630.949	-0.0066
631.284	-0.0083
631.618	-0.0089
631.953	-0.011
632.287	-0.0134
632.621	-0.0104
632.955	-0.008
633.289	-0.0047
633.623	-0.0062
633.957	-0.0056
634.291	-0.0092
634.625	-0.0118
634.959	-0.0132
635.293	-0.009
635.627	-0.0043
635.96	0.004
636.294	0.0058
636.627	-0.0007
636.961	-0.009
637.294	-0.0105
637.628	-0.0076
637.961	-0.0144
638.295	-0.0131
638.628	-0.0106
638.961	-0.0053
639.294	-0.0058
639.628	-0.0096
639.961	-0.0058
640.294	-0.0089
640.627	-0.0083
640.96	-0.011
641.293	-0.0137
641.625	-0.0089
641.958	-0.0055
642.291	-0.0047
642.624	-0.0057
642.956	-0.0076
643.289	-0.0001
643.621	0.0002
643.954	-0.0014
644.286	-0.008
644.619	-0.0094
644.951	-0.0105
645.283	-0.0058
645.616	-0.0102
645.948	-0.0065
646.28	-0.0074
646.612	-0.0041
646.944	-0.0093
647.276	-0.0118
647.608	-0.0123
647.94	-0.0073
648.272	-0.0035
648.603	0.0016
648.935	-0.0054
649.267	-0.0087
649.598	-0.0148
649.93	-0.0124
650.261	-0.0105
650.593	-0.0064
650.924	-0.0067
651.256	-0.0078
651.587	-0.0074
651.918	-0.0041
652.25	-0.0038
652.581	-0.0071
652.912	-0.0097
653.243	-0.0107
653.574	-0.0084
653.905	-0.0069
654.236	-0.0055
654.567	-0.0027
654.897	-0.0015
655.228	-0.0024
655.559	-0.002
655.89	-0.0057
656.22	-0.0093
656.551	-0.0095
656.881	-0.0021
657.212	0.0026
657.542	0.002
657.872	-0.0014
658.203	0.0017
658.533	0.0017
658.863	-0.0029
659.193	-0.0052
659.523	-0.0106
659.853	-0.0112
660.183	-0.0121
660.513	-0.011
660.843	-0.011
661.173	-0.0087
661.503	-0.0065
661.833	-0.0069
662.162	-0.0072
662.492	-0.005
662.822	-0.0048
663.151	-0.0045
663.481	-0.0098
663.81	-0.0089
664.139	-0.0089
664.469	-0.01
664.798	-0.007
665.127	-0.0079
665.456	-0.0045
665.785	-0.0078
666.114	-0.0029
666.443	-0.002
666.772	0.0011
667.101	0.0002
667.43	-0.0036
667.759	-0.0048
668.088	-0.0079
668.416	-0.0079
668.745	-0.0081
669.074	-0.0106
669.402	-0.0091
669.731	-0.0061
670.059	-0.0058
670.388	-0.0077
670.716	-0.0134
671.044	-0.0115
671.372	-0.0075
671.701	-0.0084
672.029	-0.0128
672.357	-0.0139
672.685	-0.0094
673.013	-0.0069
673.341	-0.0104
673.669	-0.0108
673.996	-0.0096
674.324	-0.0034
674.652	-0.0011
674.98	-0.0019
675.307	-0.0041
675.635	-0.0088
675.962	-0.0072
676.29	-0.0116
676.617	-0.0122
676.945	-0.0143
677.272	-0.0132
677.599	-0.0141
677.926	-0.0145
678.253	-0.0149
678.581	-0.0091
678.908	-0.004
679.235	-0.0002
679.561	-0.0024
679.888	-0.0006
680.215	-0.0008
680.542	0.0023
680.869	-0.0021
681.195	-0.001
681.522	-0.0036
681.849	-0.0022
682.175	-0.0056
682.502	-0.0127
682.828	-0.0173
683.154	-0.0183
683.481	-0.0107
683.807	-0.0077
684.133	-0.0037
684.459	-0.0038
684.785	-0.0046
685.111	-0.0074
685.437	-0.0109
685.763	-0.0137
686.089	-0.0116
686.415	-0.0116
686.741	-0.0103
687.067	-0.0058
687.392	-0.0071
687.718	-0.0023
688.043	-0.0093
688.369	-0.005
688.694	-0.0076
689.02	-0.0012
689.345	-0.0041
689.67	-0.0044
689.996	-0.0118
690.321	-0.0094
690.646	-0.0102
690.971	-0.0046
691.296	-0.0074
691.621	-0.0043
691.946	-0.0072
692.271	-0.0033
692.596	-0.0075
692.921	-0.009
693.245	-0.0138
693.57	-0.0092
693.895	-0.0089
694.219	-0.0094
694.544	-0.0127
694.868	-0.0127
695.193	-0.0132
695.517	-0.0115
695.841	-0.0106
696.166	-0.0077
696.49	-0.008
696.814	-0.0087
697.138	-0.0075
697.462	-0.0055
697.786	-0.005
698.11	-0.002
698.434	-0.005
698.758	-0.0052
699.081	-0.0044
699.405	-0.0062
699.729	-0.003
700.052	-0.0062
700.376	-0.0031
700.7	0.0014
701.023	0.0014
701.346	-0.001
701.67	-0.0072
701.993	-0.0043
702.316	-0.0021
702.639	-0.0006
702.963	0.0001
703.286	-0.0016
703.609	-0.0021
703.932	-0.0085
704.255	-0.0079
704.578	-0.0168
704.9	-0.0157
705.223	-0.0162
705.546	-0.0112
705.868	-0.0096
706.191	-0.0059
706.514	-0.0064
706.836	-0.0027
707.159	-0.0044
707.481	-0.0018
707.803	-0.0028
708.126	-0.0006
708.448	-0.0019
708.77	-0.0061
709.092	-0.0106
709.414	-0.0108
709.736	-0.0141
710.058	-0.0084
710.38	-0.0087
710.702	-0.0026
711.024	-0.0058
711.345	-0.0045
711.667	-0.005
711.989	-0.008
712.31	-0.0102
712.632	-0.0109
712.953	-0.0112
713.275	-0.0095
713.596	-0.015
713.917	-0.0111
714.239	-0.01
714.56	0.0013
714.881	0.0023
715.202	0.0039
715.523	-0.0006
715.844	-0.0036
716.165	-0.0044
716.486	-0.005
716.807	-0.0033
717.128	-0.0032
717.448	-0.0077
717.769	-0.0039
718.09	-0.0087
718.41	-0.0043
718.731	-0.0043
719.051	-0.0042
719.372	-0.005
719.692	-0.0146
720.012	-0.0188
720.332	-0.0164
720.653	-0.0147
720.973	-0.0074
721.293	-0.0073
721.613	-0.0027
721.933	-0.0015
722.253	-0.0063
722.573	-0.0111
722.892	-0.015
723.212	-0.0103
723.532	-0.0058
723.851	-0.0036
724.171	-0.0089
724.491	-0.0146
724.81	-0.0167
725.129	-0.0165
725.449	-0.0157
725.768	-0.0135
726.087	-0.0097
726.407	-0.0077
726.726	-0.0105
727.045	-0.0059
727.364	-0.0054
727.683	-0.0023
728.002	-0.0035
728.321	-0.0021
728.64	-0.005
728.958	-0.0119
729.277	-0.0099
729.596	-0.0092
729.914	-0.0069
730.233	-0.0072
730.551	-0.0064
730.87	-0.0014
731.188	-0.006
731.507	-0.0047
731.825	-0.0097
732.143	-0.0053
732.461	-0.0027
732.779	-0.002
733.097	-0.005
733.415	-0.011
733.733	-0.0141
734.051	-0.0135
734.369	-0.0096
734.687	-0.0032
735.005	-0.0038
735.322	-0.0127
735.64	-0.0188
735.957	-0.0194
736.275	-0.0126
736.592	-0.0102
736.91	-0.0124
737.227	-0.0129
737.544	-0.0155
737.862	-0.0129
738.179	-0.01
738.496	-0.0042
738.813	-0.0038
739.13	-0.0048
739.447	-0.0052
739.764	-0.0045
740.081	-0.0101
740.398	-0.0158
740.714	-0.0144
741.031	-0.0116
741.348	-0.0101
741.664	-0.01
741.981	-0.0091
742.297	-0.0106
742.614	-0.0113
742.93	-0.0093
743.246	-0.0067
743.563	-0.0099
743.879	-0.0104
744.195	-0.0129
744.511	-0.0097
744.827	-0.0094
745.143	-0.007
745.459	-0.006
745.775	-0.0032
746.091	-0.0036
746.406	-0.0082
746.722	-0.012
747.038	-0.0088
747.353	-0.0059
747.669	-0.0071
747.984	-0.0061
748.3	-0.0064
748.615	-0.0071
748.93	-0.0116
749.246	-0.0096
749.561	-0.0075
749.876	-0.004
750.191	-0.0102
750.506	-0.0105
750.821	-0.0143
751.136	-0.0138
751.451	-0.0125
751.766	-0.0119
752.08	-0.0076
752.395	-0.0126
752.71	-0.0078
753.024	-0.014
753.339	-0.0137
753.653	-0.0201
753.968	-0.0125
754.282	-0.0065
754.596	-0.0029
754.911	-0.0142
755.225	-0.0177
755.539	-0.0147
755.853	-0.0037
756.167	-0.0058
756.481	-0.0087
756.795	-0.0124
757.109	-0.0095
757.423	-0.0117
757.736	-0.0092
758.05	-0.0085
758.364	-0.0025
758.677	-0.0032
758.991	-0.0061
759.304	-0.0159
759.618	-0.0188
759.931	-0.0109
760.244	-0.0035
760.558	-0.0002
760.871	-0.0032
761.184	-0.0042
761.497	-0.0044
761.81	-0.0092
762.123	-0.009
762.436	-0.012
762.749	-0.0086
763.062	-0.0093
763.374	-0.005
763.687	-0.0082
764	-0.0075
764.312	-0.0079
764.625	-0.0097
764.937	-0.0112
765.25	-0.0071
765.562	-0.0008
765.874	-0.0052
766.186	-0.0113
766.499	-0.0143
766.811	-0.012
767.123	-0.0092
767.435	-0.0109
767.747	-0.0106
768.059	-0.012
768.37	-0.0098
768.682	-0.012
768.994	-0.0138
769.306	-0.0137
769.617	-0.0049
769.929	-0.0081
770.24	-0.006
770.552	-0.0104
770.863	-0.0048
771.174	-0.0077
771.486	-0.0061
771.797	-0.005
772.108	-0.0079
772.419	-0.0113
772.73	-0.0118
773.041	-0.0077
773.352	-0.0022
773.663	-0.0028
773.974	0.0003
774.285	-0.0054
774.595	-0.0054
774.906	-0.0114
775.217	-0.0082
775.527	-0.0078
775.838	-0.0083
776.148	-0.0057
776.458	-0.0027
776.769	0.0001
777.079	-0.0051
777.389	-0.008
777.699	-0.0018
778.009	0.0004
778.319	0.0007
778.629	-0.0036
778.939	-0.0079
779.249	-0.0028
779.559	-0.0066
779.869	-0.0019
780.178	-0.0084
780.488	-0.0059
780.798	-0.0103
781.107	-0.0143
781.417	-0.0131
781.726	-0.0066
782.035	-0.004
782.345	-0.0084
782.654	-0.013
782.963	-0.0144
783.272	-0.013
783.581	-0.0151
783.89	-0.0112
784.199	-0.0096
784.508	-0.0116
784.817	-0.0089
785.126	-0.0086
785.434	-0.01
785.743	-0.0105
786.052	-0.0127
786.36	-0.0098
786.669	-0.018
786.977	-0.0142
787.285	-0.0041
787.594	0.0028
787.902	-0.0009
788.21	-0.0087
788.518	-0.0104
788.826	-0.0092
789.135	-0.0113
789.442	-0.0098
789.75	-0.0111
790.058	-0.0091
790.366	-0.0164
790.674	-0.0147
790.981	-0.0135
791.289	-0.0124
791.597	-0.0097
791.904	-0.0084
792.212	-0.0036
792.519	-0.0079
792.826	-0.0077
793.134	-0.0105
793.441	-0.0099
793.748	-0.0089
794.055	-0.0068
794.362	-0.0017
794.669	-0.0038
794.976	-0.0033
795.283	-0.0111
795.59	-0.0088
795.897	-0.0095
796.203	-0.0091
796.51	-0.0067
796.817	-0.0121
797.123	-0.0059
797.43	-0.0088
797.736	-0.0027
798.042	-0.0087
798.349	-0.0078
798.655	-0.0084
798.961	-0.0092
799.267	-0.0099
799.573	-0.015
799.879	-0.0103
800.185	-0.0126
800.491	-0.0065
800.797	-0.0103
801.103	-0.0054
801.408	-0.0065
801.714	-0.0111
802.02	-0.0213
802.325	-0.0193
802.631	-0.0138
802.936	-0.0112
803.242	-0.0138
803.547	-0.01
803.852	-0.0021
804.157	-0.0024
804.462	-0.0079
804.768	-0.0071
805.073	-0.0126
805.378	-0.0058
805.682	-0.0095
805.987	-0.0104
806.292	-0.0171
806.597	-0.021
806.902	-0.0129
807.206	-0.0081
807.511	0.0029
807.815	-0.0034
808.12	-0.0013
808.424	-0.0063
808.728	-0.0029
809.033	-0.0038
809.337	-0.0012
809.641	0.0024
809.945	-0.0059
810.249	-0.0061
810.553	-0.0101
810.857	-0.0015
811.161	0.0004
811.465	0.0007
811.768	0.0031
812.072	-0.0008
812.376	0.0001
812.679	-0.0017
812.983	-0.0024
813.286	-0.001
813.59	-0.0051
813.893	-0.0053
814.196	-0.008
814.499	-0.0139
814.803	-0.0168
815.106	-0.0173
815.409	-0.0144
815.712	-0.0052
816.015	-0.0028
816.318	-0.0056
816.62	-0.0175
816.923	-0.0213
817.226	-0.0196
817.528	-0.0253
817.831	-0.019
818.133	-0.019
818.436	0
818.738	-0.0044
819.041	-0.0006
819.343	-0.0074
819.645	-0.0101
819.947	-0.0075
820.249	-0.013
820.551	-0.0108
820.853	-0.0052
821.155	-0.0008
821.457	-0.0031
821.759	-0.0178
822.061	-0.0197
822.362	-0.0164
822.664	-0.0035
822.966	0.0018
823.267	-0.0005
823.569	-0.0101
823.87	-0.0161
824.171	-0.0159
824.473	-0.0125
824.774	-0.0082
825.075	-0.0129
825.376	-0.0183
825.677	-0.0249
825.978	-0.0204
826.279	-0.0189
826.58	-0.0041
826.881	0
827.181	0.0084
827.482	-0.0062
827.783	-0.0159
828.083	-0.02
828.384	-0.0129
828.684	-0.0054
828.985	-0.0027
829.285	-0.005
829.585	-0.0098
829.885	-0.0143
830.185	-0.0073
830.486	-0.0025
830.786	-0.0088
831.086	-0.02
831.385	-0.0229
831.685	-0.0115
831.985	-0.0163
832.285	-0.0095
832.585	-0.0164
832.884	-0.0126
833.184	-0.0183
833.483	-0.0161
833.783	-0.0112
834.082	-0.0082
834.381	-0.0052
834.681	-0.0096
834.98	-0.0173
835.279	-0.015
835.578	-0.0109
835.877	-0.0111
836.176	-0.015
836.475	-0.0198
836.774	-0.0225
837.072	-0.0194
837.371	-0.0101
837.67	0.0003
837.968	-0.0008
838.267	0.0016
838.565	0.0028
838.864	0.0071
839.162	-0.0041
839.46	-0.0061
839.759	-0.0035
840.057	-0.0011
840.355	0.0001
840.653	-0.0028
840.951	-0.0002
841.249	0.0028
841.547	-0.0123
841.845	-0.0158
842.142	-0.0245
842.44	-0.0225
842.738	-0.0176
843.035	-0.018
843.333	-0.021
843.63	-0.0238
843.928	-0.0227
844.225	-0.0168
844.522	-0.0223
844.82	-0.0255
845.117	-0.016
845.414	-0.0146
845.711	-0.008
846.008	-0.0078
846.305	-0.0007
846.602	-0.0009
846.898	-0.0017
847.195	-0.0056
847.492	-0.0175
847.788	-0.0185
848.085	-0.0181
848.382	0.003
848.678	-0.0079
848.974	0.0054
849.271	0.0022
849.567	0.0026
849.863	-0.009
850.159	-0.011
850.455	-0.0184
850.751	-0.0291
851.047	-0.0313
851.343	-0.0259
851.639	-0.018
851.935	-0.0381
852.23	-0.0319
852.526	-0.028
852.822	-0.0018
853.117	0.002
853.413	-0.0018
853.708	-0.0207
854.003	-0.0265
854.299	-0.0374
854.594	-0.0375
854.889	-0.0358
855.184	-0.0284
855.479	-0.019
855.774	-0.0233
856.069	-0.0366
856.364	-0.0579
856.659	-0.0453
856.954	-0.0368
857.248	-0.0111
857.543	-0.024
857.837	-0.0357
858.132	-0.0333
858.426	-0.028
858.721	-0.0057
859.015	-0.0349
859.309	-0.0355
859.604	-0.0382
859.898	-0.0053
860.192	-0.0082
860.486	0.004
860.78	-0.0019
861.074	0.0018
861.367	-0.0229
861.661	-0.0426
861.955	-0.0378
862.248	-0.0295
862.542	-0.0131
862.836	-0.0035
863.129	-0.0134
863.422	-0.0078
863.716	-0.0241
864.009	0.009
864.302	-0.0035
864.595	0.0032
864.889	-0.0117
865.182	-0.0228
865.475	-0.0467
865.767	-0.0468
866.06	-0.0273
866.353	-0.0031
866.646	0.0076
866.938	0.0127
867.231	0.0172
867.524	0.0101
867.816	-0.0102
868.109	-0.0252
868.401	-0.0255
868.693	-0.0131
868.985	-0.0028
869.278	0.0208
869.57	0.0043
869.862	-0.0094
870.154	-0.0242
870.446	-0.0308
870.738	-0.0309
871.029	-0.025
871.321	-0.0045
871.613	0.0152
871.904	0.0122
872.196	0.0074
872.487	-0.0083
872.779	-0.0212
873.07	-0.0123
873.362	-0.0035
873.653	-0.0072
873.944	-0.0043
874.235	-0.0041
874.526	-0
874.817	0.0239
875.108	-0.0091
875.399	-0.0093
875.69	-0.0438
875.981	-0.0429
876.271	-0.0335
876.562	-0.0543
876.853	-0.014
877.143	-0.0449
877.434	-0.0277
877.724	-0.0693
878.014	-0.0448
878.305	-0.0459
878.595	-0.0357
878.885	-0.0602
879.175	-0.0606
879.465	-0.0498
879.755	-0.0154
880.045	0.001
880.335	0.0167
880.624	0.0086
880.914	0.0086
