Data from DIblank3_081117_1a_Absorbance_11-25-32-443.txt Node
Date: Fri Aug 11 11:25:32 MDT 2017
User: Tank Lab
Spectrometer: FLMS01220
Trigger mode: 0
Integration Time (sec): 1.000000E-1
Scans to average: 10
Electric dark correction enabled: true
Nonlinearity correction enabled: false
Boxcar width: 1
XAxis mode: Wavelengths
Number of Pixels in Spectrum: 2048
>>>>>Begin Spectral Data<<<<<
179.47	-0
179.856	-0
180.241	-0
180.626	-0
181.011	-0
181.396	-0.0818
181.781	-0.3516
182.166	-0.1962
182.551	-0
182.936	-0
183.321	-0
183.706	0.0563
184.091	-0
184.476	-0.2392
184.86	0.0802
185.245	-0.0195
185.63	-0
186.015	-0
186.399	-0
186.784	-0
187.169	-0
187.553	-0
187.938	0.2318
188.322	0.0747
188.707	-0.0466
189.091	-0.0256
189.475	-0.0512
189.86	-0.0232
190.244	-0.0466
190.629	-0.0041
191.013	0.0019
191.397	0.0121
191.781	-0.0002
192.165	-0.0058
192.55	-0.0094
192.934	-0.0161
193.318	-0.0088
193.702	-0.0055
194.086	-0.0005
194.47	-0.0004
194.854	0.0059
195.238	0.0015
195.622	-0.0015
196.006	-0.0111
196.389	-0.0039
196.773	-0.0078
197.157	-0.0042
197.541	-0.0089
197.924	-0.0056
198.308	-0.0068
198.692	-0.0037
199.075	-0.0047
199.459	-0.0006
199.843	-0.0055
200.226	-0.0074
200.61	-0.0077
200.993	-0.0091
201.376	-0.0091
201.76	-0.0112
202.143	-0.0092
202.527	-0.0041
202.91	-0.006
203.293	-0.0058
203.676	-0.0081
204.059	-0.0039
204.443	-0.0021
204.826	-0.0015
205.209	-0.002
205.592	-0.0014
205.975	-0.0009
206.358	-0.0034
206.741	-0.0077
207.124	-0.0103
207.507	-0.0102
207.89	-0.0077
208.273	-0.0091
208.655	-0.011
209.038	-0.0115
209.421	-0.0086
209.804	-0.005
210.186	-0.0035
210.569	-0.0035
210.951	-0.0034
211.334	-0.0067
211.717	-0.0063
212.099	-0.0087
212.482	-0.0055
212.864	-0.0063
213.246	-0.0059
213.629	-0.007
214.011	-0.008
214.393	-0.0062
214.776	-0.0052
215.158	-0.0041
215.54	-0.0026
215.922	-0.0034
216.305	-0.0044
216.687	-0.0063
217.069	-0.0069
217.451	-0.0065
217.833	-0.0076
218.215	-0.0061
218.597	-0.0069
218.979	-0.0071
219.361	-0.0077
219.742	-0.0072
220.124	-0.0069
220.506	-0.0057
220.888	-0.0041
221.27	-0.0033
221.651	-0.0035
222.033	-0.0027
222.415	-0.0042
222.796	-0.0055
223.178	-0.0069
223.559	-0.0041
223.941	-0.0041
224.322	-0.0035
224.704	-0.0051
225.085	-0.0024
225.466	-0.0042
225.848	-0.0045
226.229	-0.0084
226.61	-0.0079
226.992	-0.0071
227.373	-0.0055
227.754	-0.0066
228.135	-0.0054
228.516	-0.0047
228.897	-0.0025
229.278	-0.0051
229.659	-0.005
230.04	-0.0058
230.421	-0.0043
230.802	-0.0048
231.183	-0.0048
231.564	-0.0045
231.944	-0.0065
232.325	-0.0061
232.706	-0.0063
233.087	-0.0047
233.467	-0.0067
233.848	-0.0064
234.229	-0.0063
234.609	-0.0039
234.99	-0.0052
235.37	-0.0048
235.751	-0.0051
236.131	-0.0062
236.511	-0.006
236.892	-0.0067
237.272	-0.0047
237.652	-0.0044
238.033	-0.0052
238.413	-0.0051
238.793	-0.0055
239.173	-0.0044
239.553	-0.0055
239.933	-0.0053
240.313	-0.004
240.694	-0.003
241.074	-0.0022
241.453	-0.0024
241.833	-0.0027
242.213	-0.0037
242.593	-0.0053
242.973	-0.0047
243.353	-0.0042
243.732	-0.0039
244.112	-0.0063
244.492	-0.0072
244.872	-0.0061
245.251	-0.004
245.631	-0.0035
246.01	-0.0048
246.39	-0.0042
246.769	-0.0036
247.149	-0.0032
247.528	-0.0044
247.908	-0.0056
248.287	-0.0055
248.666	-0.0059
249.045	-0.0058
249.425	-0.0059
249.804	-0.0054
250.183	-0.0058
250.562	-0.0052
250.941	-0.0046
251.32	-0.003
251.699	-0.0032
252.078	-0.0043
252.457	-0.005
252.836	-0.0054
253.215	-0.0048
253.594	-0.0057
253.973	-0.0057
254.352	-0.006
254.731	-0.0053
255.109	-0.0044
255.488	-0.0051
255.867	-0.0058
256.245	-0.0066
256.624	-0.0057
257.002	-0.0051
257.381	-0.006
257.759	-0.0057
258.138	-0.0057
258.516	-0.0044
258.895	-0.0057
259.273	-0.0057
259.651	-0.0065
260.03	-0.0051
260.408	-0.0049
260.786	-0.0045
261.164	-0.0062
261.542	-0.0061
261.921	-0.0074
262.299	-0.0074
262.677	-0.0082
263.055	-0.0076
263.433	-0.0081
263.811	-0.0064
264.188	-0.0059
264.566	-0.0037
264.944	-0.0047
265.322	-0.0056
265.7	-0.0054
266.077	-0.0059
266.455	-0.004
266.833	-0.0048
267.21	-0.004
267.588	-0.0047
267.966	-0.0049
268.343	-0.0053
268.721	-0.0061
269.098	-0.0053
269.475	-0.0055
269.853	-0.0064
270.23	-0.0067
270.607	-0.0049
270.985	-0.0057
271.362	-0.0071
271.739	-0.0099
272.116	-0.0083
272.494	-0.0068
272.871	-0.0067
273.248	-0.0075
273.625	-0.0081
274.002	-0.0074
274.379	-0.0058
274.756	-0.005
275.132	-0.0035
275.509	-0.003
275.886	-0.003
276.263	-0.0038
276.64	-0.0049
277.016	-0.0053
277.393	-0.0067
277.77	-0.0058
278.146	-0.0061
278.523	-0.0058
278.899	-0.0065
279.276	-0.0052
279.652	-0.0053
280.029	-0.0058
280.405	-0.0073
280.782	-0.0063
281.158	-0.0067
281.534	-0.0054
281.91	-0.0051
282.287	-0.0041
282.663	-0.0051
283.039	-0.0054
283.415	-0.006
283.791	-0.0055
284.167	-0.0055
284.543	-0.0047
284.919	-0.0055
285.295	-0.0059
285.671	-0.0073
286.047	-0.0066
286.423	-0.0054
286.799	-0.0033
287.174	-0.0033
287.55	-0.0036
287.926	-0.005
288.301	-0.0054
288.677	-0.0068
289.053	-0.0067
289.428	-0.007
289.804	-0.0065
290.179	-0.0051
290.555	-0.0044
290.93	-0.0052
291.305	-0.0076
291.681	-0.0073
292.056	-0.0074
292.431	-0.0056
292.806	-0.0055
293.182	-0.0035
293.557	-0.0029
293.932	-0.0031
294.307	-0.0036
294.682	-0.0044
295.057	-0.006
295.432	-0.0059
295.807	-0.0064
296.182	-0.0055
296.557	-0.0065
296.932	-0.0054
297.306	-0.004
297.681	-0.003
298.056	-0.0041
298.43	-0.0055
298.805	-0.0066
299.18	-0.0067
299.554	-0.0057
299.929	-0.0054
300.303	-0.0051
300.678	-0.0049
301.052	-0.0043
301.427	-0.0045
301.801	-0.0064
302.175	-0.007
302.55	-0.006
302.924	-0.0041
303.298	-0.0047
303.672	-0.0056
304.046	-0.0059
304.421	-0.0036
304.795	-0.0012
305.169	-0.0014
305.543	-0.0021
305.917	-0.0035
306.291	-0.0041
306.664	-0.0047
307.038	-0.0057
307.412	-0.0057
307.786	-0.0054
308.16	-0.004
308.533	-0.0038
308.907	-0.0037
309.281	-0.0042
309.654	-0.0042
310.028	-0.0054
310.401	-0.006
310.775	-0.0061
311.148	-0.004
311.522	-0.0032
311.895	-0.0031
312.268	-0.0045
312.642	-0.0044
313.015	-0.0031
313.388	-0.003
313.761	-0.0037
314.135	-0.0055
314.508	-0.0055
314.881	-0.0049
315.254	-0.0051
315.627	-0.0048
316	-0.0034
316.373	-0.002
316.746	-0.0017
317.118	-0.0042
317.491	-0.005
317.864	-0.0032
318.237	-0.0015
318.61	-0.0021
318.982	-0.0039
319.355	-0.0036
319.727	-0.0047
320.1	-0.0045
320.473	-0.0068
320.845	-0.0067
321.218	-0.0073
321.59	-0.0064
321.962	-0.0054
322.335	-0.0054
322.707	-0.005
323.079	-0.0042
323.452	-0.004
323.824	-0.0051
324.196	-0.0058
324.568	-0.0057
324.94	-0.005
325.312	-0.0054
325.684	-0.0048
326.056	-0.0047
326.428	-0.004
326.8	-0.0047
327.172	-0.0044
327.544	-0.0042
327.915	-0.006
328.287	-0.0045
328.659	-0.0052
329.031	-0.0043
329.402	-0.0059
329.774	-0.0056
330.145	-0.0062
330.517	-0.0059
330.888	-0.005
331.26	-0.0038
331.631	-0.004
332.003	-0.0058
332.374	-0.0057
332.745	-0.0041
333.117	-0.0034
333.488	-0.0037
333.859	-0.0042
334.23	-0.0031
334.601	-0.0032
334.972	-0.0037
335.343	-0.0054
335.714	-0.0064
336.085	-0.0069
336.456	-0.0061
336.827	-0.0054
337.198	-0.0057
337.569	-0.0055
337.94	-0.0044
338.31	-0.0042
338.681	-0.0043
339.052	-0.0042
339.422	-0.0058
339.793	-0.0068
340.164	-0.0061
340.534	-0.002
340.905	-0.0012
341.275	-0.0034
341.645	-0.0061
342.016	-0.0062
342.386	-0.0058
342.756	-0.0055
343.127	-0.0062
343.497	-0.0056
343.867	-0.007
344.237	-0.0069
344.607	-0.0078
344.977	-0.0059
345.347	-0.0073
345.717	-0.0061
346.087	-0.0076
346.457	-0.0049
346.827	-0.0053
347.197	-0.0031
347.567	-0.0048
347.936	-0.0044
348.306	-0.0042
348.676	-0.002
349.046	-0.0032
349.415	-0.0025
349.785	-0.0032
350.154	-0.0038
350.524	-0.0061
350.893	-0.0069
351.263	-0.006
351.632	-0.0056
352.001	-0.0065
352.371	-0.006
352.74	-0.0056
353.109	-0.0041
353.478	-0.0045
353.847	-0.0039
354.217	-0.0048
354.586	-0.0046
354.955	-0.0065
355.324	-0.006
355.693	-0.0058
356.062	-0.0055
356.43	-0.0046
356.799	-0.0049
357.168	-0.0056
357.537	-0.0081
357.906	-0.0075
358.274	-0.004
358.643	-0.0031
359.011	-0.0032
359.38	-0.0069
359.749	-0.0077
360.117	-0.0072
360.486	-0.0053
360.854	-0.0044
361.222	-0.0057
361.591	-0.0079
361.959	-0.0073
362.327	-0.007
362.695	-0.0044
363.064	-0.0031
363.432	-0.0039
363.8	-0.0049
364.168	-0.0045
364.536	-0.0041
364.904	-0.0045
365.272	-0.0069
365.64	-0.0077
366.008	-0.0071
366.376	-0.0067
366.743	-0.0059
367.111	-0.0061
367.479	-0.0074
367.847	-0.0082
368.214	-0.0085
368.582	-0.0067
368.949	-0.0066
369.317	-0.0065
369.684	-0.0073
370.052	-0.006
370.419	-0.0059
370.787	-0.0062
371.154	-0.0057
371.521	-0.0038
371.889	-0.0045
372.256	-0.007
372.623	-0.0081
372.99	-0.0053
373.357	-0.0029
373.724	-0.0029
374.091	-0.0046
374.458	-0.005
374.825	-0.0047
375.192	-0.0061
375.559	-0.0061
375.926	-0.0059
376.293	-0.0061
376.659	-0.0038
377.026	-0.0052
377.393	-0.0024
377.759	-0.0066
378.126	-0.0047
378.492	-0.0059
378.859	-0.0029
379.225	-0.0034
379.592	-0.0038
379.958	-0.004
380.325	-0.0048
380.691	-0.0037
381.057	-0.0049
381.423	-0.0041
381.79	-0.005
382.156	-0.0051
382.522	-0.0057
382.888	-0.0055
383.254	-0.0071
383.62	-0.0071
383.986	-0.0085
384.352	-0.0046
384.718	-0.0043
385.084	-0.0031
385.449	-0.0055
385.815	-0.0041
386.181	-0.0043
386.547	-0.0049
386.912	-0.0057
387.278	-0.0058
387.643	-0.0047
388.009	-0.0069
388.374	-0.0068
388.74	-0.0068
389.105	-0.0055
389.471	-0.0058
389.836	-0.0086
390.201	-0.0094
390.566	-0.0106
390.932	-0.0091
391.297	-0.0069
391.662	-0.0054
392.027	-0.0045
392.392	-0.005
392.757	-0.0032
393.122	-0.002
393.487	-0.0032
393.852	-0.0046
394.217	-0.0054
394.582	-0.0057
394.946	-0.0061
395.311	-0.0064
395.676	-0.006
396.04	-0.0077
396.405	-0.0063
396.77	-0.0051
397.134	-0.0018
397.499	-0.0032
397.863	-0.0044
398.227	-0.0062
398.592	-0.0054
398.956	-0.0057
399.32	-0.0054
399.685	-0.0068
400.049	-0.0072
400.413	-0.0064
400.777	-0.0075
401.141	-0.0072
401.505	-0.0065
401.869	-0.0033
402.233	-0.0018
402.597	-0.0029
402.961	-0.0055
403.325	-0.0057
403.689	-0.0058
404.053	-0.0073
404.416	-0.0079
404.78	-0.0085
405.144	-0.0084
405.507	-0.0093
405.871	-0.0076
406.234	-0.005
406.598	-0.0034
406.961	-0.0025
407.325	-0.0038
407.688	-0.0049
408.051	-0.0074
408.415	-0.0078
408.778	-0.0087
409.141	-0.0081
409.504	-0.0074
409.867	-0.0053
410.23	-0.006
410.593	-0.0056
410.956	-0.0067
411.319	-0.0049
411.682	-0.0056
412.045	-0.0065
412.408	-0.0061
412.771	-0.0053
413.134	-0.006
413.496	-0.008
413.859	-0.0092
414.222	-0.0065
414.584	-0.0058
414.947	-0.0047
415.309	-0.0057
415.672	-0.0069
416.034	-0.0084
416.396	-0.009
416.759	-0.009
417.121	-0.0064
417.483	-0.0024
417.846	-0.0004
418.208	-0.0001
418.57	-0.0024
418.932	-0.0005
419.294	-0.0008
419.656	-0.0013
420.018	-0.0029
420.38	-0.004
420.742	-0.0032
421.104	-0.0067
421.466	-0.0047
421.827	-0.0049
422.189	-0.003
422.551	-0.0066
422.912	-0.0091
423.274	-0.011
423.636	-0.0095
423.997	-0.0092
424.359	-0.0073
424.72	-0.0077
425.081	-0.008
425.443	-0.0074
425.804	-0.007
426.165	-0.0056
426.527	-0.0071
426.888	-0.0075
427.249	-0.0094
427.61	-0.0086
427.971	-0.009
428.332	-0.0077
428.693	-0.0066
429.054	-0.0051
429.415	-0.0039
429.776	-0.0033
430.137	-0.0032
430.498	-0.0056
430.858	-0.0103
431.219	-0.0117
431.58	-0.0082
431.94	-0.0036
432.301	-0.0049
432.661	-0.0062
433.022	-0.0069
433.382	-0.0037
433.743	-0.0031
434.103	-0.0018
434.463	-0.0044
434.824	-0.0061
435.184	-0.0083
435.544	-0.0083
435.904	-0.008
436.264	-0.0082
436.624	-0.0073
436.985	-0.0087
437.345	-0.0074
437.704	-0.0081
438.064	-0.0067
438.424	-0.0087
438.784	-0.0079
439.144	-0.0074
439.504	-0.0061
439.863	-0.0062
440.223	-0.0065
440.583	-0.0043
440.942	-0.0042
441.302	-0.0047
441.661	-0.0067
442.021	-0.0068
442.38	-0.0044
442.739	-0.0047
443.099	-0.0049
443.458	-0.0033
443.817	-0.0019
444.176	-0.0018
444.536	-0.0051
444.895	-0.0083
445.254	-0.008
445.613	-0.0071
445.972	-0.0071
446.331	-0.0053
446.69	-0.0068
447.049	-0.0048
447.407	-0.0052
447.766	-0.0064
448.125	-0.0084
448.484	-0.01
448.842	-0.0078
449.201	-0.0055
449.559	-0.007
449.918	-0.0074
450.276	-0.009
450.635	-0.0067
450.993	-0.0078
451.352	-0.0062
451.71	-0.0082
452.068	-0.0056
452.426	-0.0074
452.785	-0.0033
453.143	-0.0057
453.501	-0.0051
453.859	-0.0096
454.217	-0.0096
454.575	-0.0073
454.933	-0.0069
455.291	-0.0045
455.649	-0.0055
456.006	-0.0037
456.364	-0.0047
456.722	-0.0055
457.079	-0.0052
457.437	-0.0058
457.795	-0.0065
458.152	-0.0071
458.51	-0.0062
458.867	-0.0056
459.225	-0.005
459.582	-0.0061
459.939	-0.0067
460.297	-0.0036
460.654	-0.002
461.011	-0.0003
461.368	-0.0056
461.725	-0.0074
462.082	-0.0107
462.44	-0.0091
462.797	-0.0073
463.153	-0.0026
463.51	-0.0025
463.867	-0.0055
464.224	-0.0079
464.581	-0.0065
464.938	-0.0053
465.294	-0.0045
465.651	-0.0083
466.008	-0.0066
466.364	-0.0079
466.721	-0.0083
467.077	-0.0071
467.434	-0.0053
467.79	-0.0035
468.146	-0.0046
468.503	-0.0068
468.859	-0.0075
469.215	-0.0068
469.571	-0.0069
469.927	-0.0079
470.284	-0.0109
470.64	-0.0107
470.996	-0.0092
471.352	-0.008
471.707	-0.007
472.063	-0.007
472.419	-0.0055
472.775	-0.0048
473.131	-0.0049
473.486	-0.0075
473.842	-0.0083
474.198	-0.005
474.553	-0.0024
474.909	-0.0027
475.264	-0.0058
475.62	-0.0068
475.975	-0.0058
476.331	-0.0059
476.686	-0.0078
477.041	-0.0075
477.396	-0.005
477.752	-0.002
478.107	-0.0017
478.462	-0.0017
478.817	-0.0036
479.172	-0.0064
479.527	-0.009
479.882	-0.0069
480.237	-0.0062
480.591	-0.0067
480.946	-0.009
481.301	-0.0072
481.656	-0.0071
482.01	-0.006
482.365	-0.0072
482.72	-0.0076
483.074	-0.0072
483.429	-0.0066
483.783	-0.0042
484.137	-0.0067
484.492	-0.0075
484.846	-0.0095
485.2	-0.0086
485.555	-0.0092
485.909	-0.0075
486.263	-0.0056
486.617	-0.0055
486.971	-0.0064
487.325	-0.0052
487.679	-0.004
488.033	-0.0041
488.387	-0.0047
488.741	-0.0067
489.094	-0.0082
489.448	-0.0097
489.802	-0.008
490.156	-0.005
490.509	-0.0059
490.863	-0.008
491.216	-0.008
491.57	-0.0065
491.923	-0.0062
492.277	-0.0071
492.63	-0.008
492.983	-0.0071
493.337	-0.0082
493.69	-0.008
494.043	-0.0073
494.396	-0.0067
494.749	-0.0058
495.102	-0.0068
495.455	-0.0089
495.808	-0.0093
496.161	-0.0101
496.514	-0.0085
496.867	-0.0092
497.22	-0.0085
497.572	-0.0072
497.925	-0.0066
498.278	-0.0047
498.63	-0.0058
498.983	-0.0068
499.335	-0.008
499.688	-0.0083
500.04	-0.0078
500.393	-0.0078
500.745	-0.0064
501.097	-0.0072
501.449	-0.0065
501.802	-0.0084
502.154	-0.0081
502.506	-0.0089
502.858	-0.0099
503.21	-0.0085
503.562	-0.009
503.914	-0.0045
504.266	-0.0068
504.618	-0.005
504.969	-0.008
505.321	-0.0034
505.673	-0.0039
506.025	-0.0015
506.376	-0.0036
506.728	-0.0046
507.079	-0.0082
507.431	-0.01
507.782	-0.0105
508.134	-0.0078
508.485	-0.0082
508.836	-0.0087
509.188	-0.0088
509.539	-0.0094
509.89	-0.0081
510.241	-0.0103
510.592	-0.0101
510.943	-0.0099
511.294	-0.0091
511.645	-0.0065
511.996	-0.0041
512.347	-0.0037
512.698	-0.005
513.049	-0.0091
513.399	-0.0089
513.75	-0.0064
514.101	-0.0053
514.451	-0.005
514.802	-0.0078
515.152	-0.0062
515.503	-0.0045
515.853	-0.0056
516.203	-0.008
516.554	-0.0091
516.904	-0.0074
517.254	-0.0056
517.604	-0.0066
517.955	-0.0046
518.305	-0.0069
518.655	-0.0074
519.005	-0.011
519.355	-0.0086
519.705	-0.0075
520.055	-0.0077
520.404	-0.0085
520.754	-0.0095
521.104	-0.0122
521.454	-0.0129
521.803	-0.0115
522.153	-0.0086
522.502	-0.0043
522.852	-0.0061
523.201	-0.0063
523.551	-0.0119
523.9	-0.0082
524.249	-0.0083
524.599	-0.0056
524.948	-0.0074
525.297	-0.0061
525.646	-0.007
525.995	-0.007
526.344	-0.0051
526.694	-0.0036
527.042	-0.0028
527.391	-0.0048
527.74	-0.0063
528.089	-0.0075
528.438	-0.0086
528.787	-0.0096
529.135	-0.0114
529.484	-0.0089
529.833	-0.0073
530.181	-0.004
530.53	-0.0049
530.878	-0.0068
531.227	-0.0064
531.575	-0.0092
531.923	-0.0077
532.271	-0.0107
532.62	-0.0068
532.968	-0.0079
533.316	-0.0063
533.664	-0.0077
534.012	-0.0046
534.36	-0.0077
534.708	-0.0085
535.056	-0.0099
535.404	-0.0099
535.752	-0.0089
536.1	-0.0116
536.447	-0.0124
536.795	-0.0102
537.143	-0.0096
537.49	-0.0074
537.838	-0.0132
538.185	-0.0085
538.533	-0.0079
538.88	-0.0051
539.228	-0.0113
539.575	-0.0103
539.922	-0.0065
540.269	-0.0023
540.617	-0.0029
540.964	-0.0072
541.311	-0.0093
541.658	-0.0114
542.005	-0.0094
542.352	-0.0106
542.699	-0.0079
543.045	-0.0096
543.392	-0.0076
543.739	-0.0081
544.086	-0.0084
544.432	-0.0069
544.779	-0.0088
545.126	-0.0087
545.472	-0.0097
545.819	-0.0092
546.165	-0.0094
546.512	-0.0117
546.858	-0.0114
547.204	-0.0097
547.55	-0.008
547.897	-0.0087
548.243	-0.0092
548.589	-0.0151
548.935	-0.0145
549.281	-0.0131
549.627	-0.0071
549.973	-0.0062
550.319	-0.0048
550.665	-0.0044
551.01	-0.0078
551.356	-0.0105
551.702	-0.0111
552.048	-0.0087
552.393	-0.0099
552.739	-0.0088
553.084	-0.0117
553.43	-0.0095
553.775	-0.0107
554.12	-0.0068
554.466	-0.0085
554.811	-0.0066
555.156	-0.0078
555.502	-0.0087
555.847	-0.0095
556.192	-0.0102
556.537	-0.0087
556.882	-0.0102
557.227	-0.0091
557.572	-0.0111
557.917	-0.0109
558.261	-0.0088
558.606	-0.0081
558.951	-0.0086
559.295	-0.0115
559.64	-0.011
559.985	-0.007
560.329	-0.0067
560.674	-0.0062
561.018	-0.0113
561.363	-0.0094
561.707	-0.0083
562.051	-0.0066
562.395	-0.0092
562.74	-0.0106
563.084	-0.0121
563.428	-0.0127
563.772	-0.0118
564.116	-0.0097
564.46	-0.0107
564.804	-0.0087
565.148	-0.007
565.492	-0.0045
565.835	-0.0084
566.179	-0.0124
566.523	-0.0108
566.866	-0.009
567.21	-0.0102
567.554	-0.0128
567.897	-0.0114
568.24	-0.0054
568.584	-0.006
568.927	-0.0087
569.271	-0.013
569.614	-0.0095
569.957	-0.0079
570.3	-0.0081
570.643	-0.0106
570.986	-0.0137
571.329	-0.0104
571.672	-0.0084
572.015	-0.0063
572.358	-0.0075
572.701	-0.0074
573.044	-0.0088
573.387	-0.008
573.729	-0.0095
574.072	-0.0094
574.414	-0.0118
574.757	-0.014
575.099	-0.0141
575.442	-0.0111
575.784	-0.0083
576.127	-0.007
576.469	-0.0086
576.811	-0.0082
577.153	-0.0108
577.496	-0.0113
577.838	-0.013
578.18	-0.0123
578.522	-0.0116
578.864	-0.0073
579.206	-0.0068
579.548	-0.0068
579.889	-0.0091
580.231	-0.0074
580.573	-0.0101
580.915	-0.0117
581.256	-0.015
581.598	-0.0153
581.939	-0.0135
582.281	-0.0129
582.622	-0.011
582.964	-0.0123
583.305	-0.0108
583.646	-0.0069
583.988	-0.0049
584.329	-0.0085
584.67	-0.0114
585.011	-0.0146
585.352	-0.0116
585.693	-0.0125
586.034	-0.0115
586.375	-0.0105
586.716	-0.0104
587.057	-0.0106
587.398	-0.0104
587.738	-0.0091
588.079	-0.0087
588.42	-0.01
588.76	-0.011
589.101	-0.0116
589.441	-0.01
589.782	-0.0099
590.122	-0.0086
590.463	-0.01
590.803	-0.0095
591.143	-0.0157
591.483	-0.0178
591.823	-0.0181
592.164	-0.0122
592.504	-0.0083
592.844	-0.0087
593.184	-0.0088
593.523	-0.0133
593.863	-0.0105
594.203	-0.0085
594.543	-0.0104
594.883	-0.0116
595.222	-0.0085
595.562	-0.0075
595.901	-0.01
596.241	-0.0127
596.58	-0.009
596.92	-0.0081
597.259	-0.0085
597.599	-0.0114
597.938	-0.0122
598.277	-0.0124
598.616	-0.012
598.955	-0.0096
599.295	-0.0107
599.634	-0.0107
599.973	-0.013
600.312	-0.0099
600.65	-0.0103
600.989	-0.0062
601.328	-0.0059
601.667	-0.0074
602.005	-0.0093
602.344	-0.0108
602.683	-0.0096
603.021	-0.0095
603.36	-0.0111
603.698	-0.0135
604.037	-0.0162
604.375	-0.0146
604.713	-0.0105
605.052	-0.0071
605.39	-0.0094
605.728	-0.0083
606.066	-0.0099
606.404	-0.0102
606.742	-0.0105
607.08	-0.0134
607.418	-0.0116
607.756	-0.0119
608.094	-0.0092
608.431	-0.0078
608.769	-0.0133
609.107	-0.0105
609.444	-0.0133
609.782	-0.0089
610.12	-0.0109
610.457	-0.0105
610.794	-0.0089
611.132	-0.0072
611.469	-0.0072
611.806	-0.0111
612.144	-0.0125
612.481	-0.011
612.818	-0.0114
613.155	-0.0147
613.492	-0.0142
613.829	-0.0104
614.166	-0.009
614.503	-0.0107
614.84	-0.0118
615.176	-0.0084
615.513	-0.006
615.85	-0.0031
616.187	-0.0048
616.523	-0.0065
616.86	-0.011
617.196	-0.0149
617.533	-0.0138
617.869	-0.0116
618.205	-0.0084
618.542	-0.0131
618.878	-0.0132
619.214	-0.013
619.55	-0.0083
619.886	-0.0102
620.222	-0.0069
620.558	-0.0093
620.894	-0.0086
621.23	-0.0146
621.566	-0.0125
621.902	-0.0115
622.238	-0.0083
622.573	-0.0121
622.909	-0.0149
623.244	-0.0168
623.58	-0.0149
623.916	-0.0128
624.251	-0.0103
624.586	-0.0086
624.922	-0.0093
625.257	-0.0143
625.592	-0.014
625.927	-0.0143
626.263	-0.0114
626.598	-0.0136
626.933	-0.0156
627.268	-0.0125
627.603	-0.0111
627.938	-0.0059
628.272	-0.0077
628.607	-0.0072
628.942	-0.0118
629.277	-0.0111
629.611	-0.0099
629.946	-0.0122
630.281	-0.0113
630.615	-0.0111
630.949	-0.0074
631.284	-0.007
631.618	-0.0089
631.953	-0.0112
632.287	-0.0139
632.621	-0.0159
632.955	-0.0115
633.289	-0.0095
633.623	-0.008
633.957	-0.0085
634.291	-0.0091
634.625	-0.0101
634.959	-0.0093
635.293	-0.0093
635.627	-0.0091
635.96	-0.0058
636.294	-0.0028
636.627	-0.003
636.961	-0.0103
637.294	-0.0097
637.628	-0.0086
637.961	-0.0128
638.295	-0.0142
638.628	-0.0131
638.961	-0.0069
639.294	-0.0082
639.628	-0.0128
639.961	-0.0147
640.294	-0.0152
640.627	-0.0123
640.96	-0.0114
641.293	-0.015
641.625	-0.0107
641.958	-0.0105
642.291	-0.007
642.624	-0.0116
642.956	-0.0137
643.289	-0.0146
643.621	-0.0112
643.954	-0.0083
644.286	-0.0087
644.619	-0.0107
644.951	-0.012
645.283	-0.0081
645.616	-0.012
645.948	-0.0103
646.28	-0.0113
646.612	-0.0074
646.944	-0.0088
647.276	-0.0119
647.608	-0.0076
647.94	-0.0084
648.272	-0.0017
648.603	-0.0016
648.935	-0.0044
649.267	-0.007
649.598	-0.0145
649.93	-0.0092
650.261	-0.0071
650.593	-0.005
650.924	-0.0108
651.256	-0.0159
651.587	-0.0143
651.918	-0.0102
652.25	-0.0071
652.581	-0.0101
652.912	-0.012
653.243	-0.0168
653.574	-0.0183
653.905	-0.017
654.236	-0.0139
654.567	-0.0093
654.897	-0.0116
655.228	-0.01
655.559	-0.0094
655.89	-0.0081
656.22	-0.0132
656.551	-0.0145
656.881	-0.008
657.212	-0.0064
657.542	-0.0007
657.872	-0.0041
658.203	0.0016
658.533	-0.0053
658.863	-0.0129
659.193	-0.0159
659.523	-0.0206
659.853	-0.0171
660.183	-0.0152
660.513	-0.0144
660.843	-0.0126
661.173	-0.0131
661.503	-0.0133
661.833	-0.0141
662.162	-0.0134
662.492	-0.0101
662.822	-0.0103
663.151	-0.0061
663.481	-0.0083
663.81	-0.0045
664.139	-0.0062
664.469	-0.005
664.798	0.0033
665.127	0.0028
665.456	0.0012
665.785	-0.0064
666.114	-0.0036
666.443	-0.0037
666.772	-0.0018
667.101	-0.0044
667.43	-0.0083
667.759	-0.0134
668.088	-0.0133
668.416	-0.013
668.745	-0.0124
669.074	-0.0171
669.402	-0.0151
669.731	-0.0109
670.059	-0.0099
670.388	-0.0095
670.716	-0.0152
671.044	-0.0148
671.372	-0.0144
671.701	-0.0124
672.029	-0.0146
672.357	-0.0136
672.685	-0.0105
673.013	-0.01
673.341	-0.0104
673.669	-0.0125
673.996	-0.0055
674.324	-0.0049
674.652	-0.0037
674.98	-0.0062
675.307	-0.0079
675.635	-0.0103
675.962	-0.0125
676.29	-0.0142
676.617	-0.0152
676.945	-0.0189
677.272	-0.0216
677.599	-0.022
677.926	-0.0158
678.253	-0.015
678.581	-0.0103
678.908	-0.011
679.235	-0.0118
679.561	-0.0127
679.888	-0.0117
680.215	-0.0074
680.542	-0.0062
680.869	-0.0069
681.195	-0.0075
681.522	-0.0079
681.849	-0.0059
682.175	-0.0082
682.502	-0.0153
682.828	-0.0212
683.154	-0.0224
683.481	-0.0144
683.807	-0.0125
684.133	-0.0114
684.459	-0.0089
684.785	-0.0068
685.111	-0.0063
685.437	-0.0139
685.763	-0.016
686.089	-0.0155
686.415	-0.0153
686.741	-0.0148
687.067	-0.0118
687.392	-0.0077
687.718	-0.0025
688.043	-0.0064
688.369	-0.0108
688.694	-0.0172
689.02	-0.0123
689.345	-0.0101
689.67	-0.0066
689.996	-0.0076
690.321	-0.0112
690.646	-0.0133
690.971	-0.0145
691.296	-0.0088
691.621	-0.0057
691.946	-0.0068
692.271	-0.0074
692.596	-0.0107
692.921	-0.0106
693.245	-0.0149
693.57	-0.0095
693.895	-0.0113
694.219	-0.0078
694.544	-0.0099
694.868	-0.0107
695.193	-0.0154
695.517	-0.0146
695.841	-0.0098
696.166	-0.0058
696.49	-0.008
696.814	-0.0132
697.138	-0.0144
697.462	-0.0109
697.786	-0.0062
698.11	-0.0052
698.434	-0.0085
698.758	-0.0097
699.081	-0.0086
699.405	-0.0083
699.729	-0.0086
700.052	-0.0081
700.376	-0.0088
700.7	-0.0009
701.023	-0.0049
701.346	-0.004
701.67	-0.0152
701.993	-0.0097
702.316	-0.01
702.639	-0.0066
702.963	-0.0058
703.286	-0.0046
703.609	-0.0053
703.932	-0.0157
704.255	-0.0186
704.578	-0.023
704.9	-0.0186
705.223	-0.0187
705.546	-0.0158
705.868	-0.0136
706.191	-0.0072
706.514	-0.0075
706.836	-0.0018
707.159	-0.0042
707.481	-0.0012
707.803	-0.0025
708.126	-0.0098
708.448	-0.012
708.77	-0.018
709.092	-0.013
709.414	-0.0097
709.736	-0.0099
710.058	-0.0071
710.38	-0.011
710.702	-0.0082
711.024	-0.0087
711.345	-0.0017
711.667	-0.0057
711.989	-0.0118
712.31	-0.0175
712.632	-0.0176
712.953	-0.014
713.275	-0.0126
713.596	-0.0105
713.917	-0.0078
714.239	-0.0067
714.56	-0.002
714.881	-0.003
715.202	-0.0059
715.523	-0.0102
715.844	-0.0162
716.165	-0.0176
716.486	-0.0166
716.807	-0.0114
717.128	-0.0085
717.448	-0.011
717.769	-0.0064
718.09	-0.0048
718.41	-0.0028
718.731	-0.0056
719.051	-0.0091
719.372	-0.0088
719.692	-0.0143
720.012	-0.0162
720.332	-0.0184
720.653	-0.0206
720.973	-0.0196
721.293	-0.0155
721.613	-0.0107
721.933	-0.0089
722.253	-0.0112
722.573	-0.0154
722.892	-0.0193
723.212	-0.0189
723.532	-0.0121
723.851	-0.0051
724.171	-0.0071
724.491	-0.0119
724.81	-0.0156
725.129	-0.0174
725.449	-0.0172
725.768	-0.0164
726.087	-0.0098
726.407	-0.0068
726.726	-0.0063
727.045	-0.0057
727.364	-0.0109
727.683	-0.0106
728.002	-0.0102
728.321	-0.0065
728.64	-0.0088
728.958	-0.0134
729.277	-0.0112
729.596	-0.0093
729.914	-0.0071
730.233	-0.0081
730.551	-0.0081
730.87	-0.0084
731.188	-0.0079
731.507	-0.0081
731.825	-0.0093
732.143	-0.0085
732.461	-0.008
732.779	-0.0066
733.097	-0.0102
733.415	-0.0097
733.733	-0.0131
734.051	-0.0104
734.369	-0.0113
734.687	-0.0094
735.005	-0.0081
735.322	-0.0123
735.64	-0.0157
735.957	-0.0183
736.275	-0.0114
736.592	-0.0078
736.91	-0.0108
737.227	-0.0155
737.544	-0.0177
737.862	-0.0184
738.179	-0.0164
738.496	-0.014
738.813	-0.0128
739.13	-0.0149
739.447	-0.0128
739.764	-0.01
740.081	-0.0115
740.398	-0.0175
740.714	-0.0221
741.031	-0.0179
741.348	-0.0162
741.664	-0.0081
741.981	-0.0101
742.297	-0.0068
742.614	-0.0058
742.93	-0.0011
743.246	-0.005
743.563	-0.0138
743.879	-0.0162
744.195	-0.0167
744.511	-0.0108
744.827	-0.0127
745.143	-0.0111
745.459	-0.0155
745.775	-0.0185
746.091	-0.0231
746.406	-0.025
746.722	-0.0214
747.038	-0.0144
747.353	-0.0136
747.669	-0.0157
747.984	-0.0184
748.3	-0.0142
748.615	-0.0114
748.93	-0.0123
749.246	-0.0126
749.561	-0.0145
749.876	-0.0093
750.191	-0.0074
750.506	-0.0066
750.821	-0.0097
751.136	-0.0085
751.451	-0.0094
751.766	-0.0151
752.08	-0.0187
752.395	-0.0223
752.71	-0.0158
753.024	-0.0206
753.339	-0.0193
753.653	-0.0185
753.968	-0.0136
754.282	-0.0104
754.596	-0.0098
754.911	-0.02
755.225	-0.0166
755.539	-0.014
755.853	-0.0012
756.167	-0.0027
756.481	-0.0065
756.795	-0.011
757.109	-0.0152
757.423	-0.0226
757.736	-0.0176
758.05	-0.0123
758.364	-0.0069
758.677	-0.0115
758.991	-0.0133
759.304	-0.0137
759.618	-0.0145
759.931	-0.0123
760.244	-0.0108
760.558	-0.0098
760.871	-0.0117
761.184	-0.0148
761.497	-0.0153
761.81	-0.0181
762.123	-0.0172
762.436	-0.0191
762.749	-0.016
763.062	-0.0117
763.374	-0.0076
763.687	-0.0085
764	-0.0114
764.312	-0.0137
764.625	-0.0165
764.937	-0.0155
765.25	-0.0152
765.562	-0.0095
765.874	-0.0134
766.186	-0.012
766.499	-0.0185
766.811	-0.0175
767.123	-0.0198
767.435	-0.0128
767.747	-0.0112
768.059	-0.0122
768.37	-0.0165
768.682	-0.0163
768.994	-0.0153
769.306	-0.011
769.617	-0.0069
769.929	-0.0075
770.24	-0.0049
770.552	-0.0129
770.863	-0.0097
771.174	-0.0134
771.486	-0.0115
771.797	-0.0133
772.108	-0.0184
772.419	-0.0175
772.73	-0.0165
773.041	-0.0111
773.352	-0.0068
773.663	-0.0061
773.974	-0.007
774.285	-0.0124
774.595	-0.0087
774.906	-0.0149
775.217	-0.0125
775.527	-0.0176
775.838	-0.0127
776.148	-0.0096
776.458	-0.0053
776.769	-0.0072
777.079	-0.0102
777.389	-0.0132
777.699	-0.0064
778.009	-0.0062
778.319	-0.0039
778.629	-0.0135
778.939	-0.0142
779.249	-0.0083
779.559	-0.0027
779.869	-0.004
780.178	-0.0075
780.488	-0.0091
780.798	-0.0134
781.107	-0.0217
781.417	-0.0213
781.726	-0.0141
782.035	-0.0105
782.345	-0.0116
782.654	-0.0165
782.963	-0.017
783.272	-0.0095
783.581	-0.0078
783.89	-0.0067
784.199	-0.0097
784.508	-0.0128
784.817	-0.0147
785.126	-0.0204
785.434	-0.0203
785.743	-0.0146
786.052	-0.0117
786.36	-0.0108
786.669	-0.0194
786.977	-0.0221
787.285	-0.0126
787.594	-0.0057
787.902	-0.0072
788.21	-0.0162
788.518	-0.0165
788.826	-0.0095
789.135	-0.0137
789.442	-0.0236
789.75	-0.0294
790.058	-0.0246
790.366	-0.0208
790.674	-0.0209
790.981	-0.022
791.289	-0.0195
791.597	-0.0179
791.904	-0.0101
792.212	-0.0052
792.519	-0.0071
792.826	-0.0107
793.134	-0.0104
793.441	-0.0072
793.748	-0.007
794.055	-0.0106
794.362	-0.0085
794.669	-0.0087
794.976	-0.0079
795.283	-0.0165
795.59	-0.0166
795.897	-0.0163
796.203	-0.0059
796.51	0.0001
796.817	-0.0028
797.123	-0.005
797.43	-0.0077
797.736	-0.0078
798.042	-0.0125
798.349	-0.0117
798.655	-0.0123
798.961	-0.0115
799.267	-0.0169
799.573	-0.0208
799.879	-0.0177
800.185	-0.0245
800.491	-0.0193
800.797	-0.0146
801.103	-0.002
801.408	-0.0022
801.714	-0.0086
802.02	-0.0186
802.325	-0.0156
802.631	-0.0128
802.936	-0.0069
803.242	-0.0114
803.547	-0.0112
803.852	-0.0103
804.157	-0.0061
804.462	-0.0097
804.768	-0.0114
805.073	-0.0206
805.378	-0.017
805.682	-0.0219
805.987	-0.0245
806.292	-0.0253
806.597	-0.0253
806.902	-0.0105
807.206	-0.0168
807.511	-0.008
807.815	-0.0123
808.12	-0.0023
808.424	-0.0022
808.728	-0.0034
809.033	-0.0085
809.337	-0.0148
809.641	-0.0136
809.945	-0.0178
810.249	-0.0138
810.553	-0.0157
810.857	-0.0057
811.161	-0.0064
811.465	-0.0044
811.768	-0.005
812.072	-0.0043
812.376	-0.0018
812.679	-0.0068
812.983	-0.0096
813.286	-0.0128
813.59	-0.014
813.893	-0.0129
814.196	-0.0158
814.499	-0.0192
814.803	-0.0201
815.106	-0.0207
815.409	-0.0183
815.712	-0.0183
816.015	-0.0149
816.318	-0.0097
816.62	-0.0117
816.923	-0.0151
817.226	-0.0081
817.528	-0.008
817.831	-0.0007
818.133	-0.0083
818.436	-0.0006
818.738	-0.0016
819.041	-0.005
819.343	-0.0093
819.645	-0.0115
819.947	-0.0139
820.249	-0.0155
820.551	-0.014
820.853	-0.0085
821.155	-0.008
821.457	-0.0134
821.759	-0.016
822.061	-0.0192
822.362	-0.0172
822.664	-0.0064
822.966	-0.0029
823.267	-0.0006
823.569	-0.0139
823.87	-0.0107
824.171	-0.0175
824.473	-0.0061
824.774	-0.0163
825.075	-0.0166
825.376	-0.0272
825.677	-0.0246
825.978	-0.0192
826.279	-0.011
826.58	-0.0032
826.881	-0.0087
827.181	-0.0124
827.482	-0.0116
827.783	-0.0071
828.083	-0.0138
828.384	-0.0208
828.684	-0.0236
828.985	-0.0215
829.285	-0.0186
829.585	-0.0176
829.885	-0.0202
830.185	-0.0162
830.486	-0.0117
830.786	-0.01
831.086	-0.0203
831.385	-0.0227
831.685	-0.0142
831.985	-0.0231
832.285	-0.0253
832.585	-0.0303
832.884	-0.0159
833.184	-0.02
833.483	-0.0295
833.783	-0.0245
834.082	-0.0175
834.381	-0.0095
834.681	-0.0143
834.98	-0.0227
835.279	-0.0228
835.578	-0.0202
835.877	-0.0227
836.176	-0.0241
836.475	-0.0354
836.774	-0.0322
837.072	-0.0285
837.371	-0.0182
837.67	-0.0192
837.968	-0.0184
838.267	-0.0145
838.565	0
838.864	-0.0052
839.162	-0.0162
839.46	-0.0331
839.759	-0.0193
840.057	-0.009
840.355	-0.0025
840.653	-0.0195
840.951	-0.0078
841.249	-0.0011
841.547	-0.0057
841.845	-0.0275
842.142	-0.0362
842.44	-0.0257
842.738	-0.0262
843.035	-0.0139
843.333	-0.0073
843.63	-0.0043
843.928	-0.0053
844.225	-0.0214
844.522	-0.0152
844.82	-0.011
845.117	0.0103
845.414	0.0068
845.711	0.0017
846.008	-0.0093
846.305	-0.0099
846.602	-0.0289
846.898	-0.0326
847.195	-0.0325
847.492	-0.0177
847.788	-0.0091
848.085	-0.0118
848.382	0.0012
848.678	-0.0148
848.974	-0.0018
849.271	-0.0195
849.567	-0.0144
849.863	-0.0256
850.159	-0.0189
850.455	-0.0183
850.751	-0.023
851.047	-0.0302
851.343	-0.0266
851.639	-0.0232
851.935	-0.0307
852.23	-0.032
852.526	-0.025
852.822	-0.0148
853.117	-0.0073
853.413	-0.0016
853.708	-0.0023
854.003	-0.0172
854.299	-0.0225
854.594	-0.0204
854.889	-0.0047
855.184	-0.0082
855.479	-0.0263
855.774	-0.0236
856.069	-0.043
856.364	-0.0515
856.659	-0.043
856.954	-0.0238
857.248	0.0021
857.543	-0.0128
857.837	-0.024
858.132	-0.02
858.426	-0.006
858.721	-0.005
859.015	-0.0125
859.309	-0.0266
859.604	-0.0261
859.898	-0.0156
860.192	-0.0069
860.486	0.0119
860.78	0.0085
861.074	0.0091
861.367	-0.0064
861.661	-0.0033
861.955	-0.0061
862.248	0.0034
862.542	0.0004
862.836	-0.0015
863.129	0.0039
863.422	0.0007
863.716	0.0006
864.009	-0.0042
864.302	-0.0136
864.595	-0.0062
864.889	-0.0131
865.182	-0.0111
865.475	-0.0298
865.767	-0.0279
866.06	-0.0226
866.353	-0.0114
866.646	0.0019
866.938	0
867.231	0.0096
867.524	0.0099
867.816	-0.0029
868.109	-0.0164
868.401	-0.0244
868.693	-0.0087
868.985	0.0131
869.278	0.0207
869.57	0.0276
869.862	0.0161
870.154	0.0131
870.446	-0.0095
870.738	-0.0372
871.029	-0.0239
871.321	-0.0006
871.613	0.0287
871.904	0.0138
872.196	-0.0012
872.487	-0.0095
872.779	-0.0162
873.07	-0.0194
873.362	-0.0169
873.653	-0.0137
873.944	0.0054
874.235	-0.0124
874.526	-0.0272
874.817	-0.0189
875.108	-0.0076
875.399	0.0037
875.69	-0.0055
875.981	-0.0225
876.271	-0.0073
876.562	-0.0379
876.853	-0.007
877.143	-0.0392
877.434	-0.0304
877.724	-0.0453
878.014	-0.0533
878.305	-0.0447
878.595	-0.0608
878.885	-0.0622
879.175	-0.0491
879.465	-0.0275
879.755	0.0079
880.045	0.015
880.335	0.0273
880.624	0.0295
880.914	0.0295
