Data from DIblank_071817_2b_Absorbance_22-43-22-125.txt Node
Date: Tue Jul 18 22:43:22 MDT 2017
User: Tank Lab
Spectrometer: FLMS01220
Trigger mode: 0
Integration Time (sec): 1.000000E-1
Scans to average: 10
Electric dark correction enabled: true
Nonlinearity correction enabled: false
Boxcar width: 1
XAxis mode: Wavelengths
Number of Pixels in Spectrum: 2048
>>>>>Begin Spectral Data<<<<<
179.47	-0.1937
179.856	-0.1937
180.241	0.6772
180.626	-0
181.011	-0
181.396	-0.0045
181.781	0.2467
182.166	-0
182.551	0.1362
182.936	-0
183.321	0.6558
183.706	0.6817
184.091	0.3743
184.476	-0
184.86	0.2098
185.245	0.0881
185.63	-0
186.015	-0
186.399	-0
186.784	0.1449
187.169	0.5083
187.553	-0.0682
187.938	-0.0957
188.322	0.0225
188.707	0.0406
189.091	0.026
189.475	0.024
189.86	0.0248
190.244	0.0379
190.629	0.0226
191.013	0.0291
191.397	0.0229
191.781	0.026
192.165	0.0321
192.55	0.0328
192.934	0.0354
193.318	0.0261
193.702	0.0245
194.086	0.017
194.47	0.0217
194.854	0.0277
195.238	0.0246
195.622	0.0232
196.006	0.0137
196.389	0.0123
196.773	0.0067
197.157	0.0144
197.541	0.0171
197.924	0.0187
198.308	0.0101
198.692	0.0116
199.075	0.0107
199.459	0.0197
199.843	0.0192
200.226	0.0208
200.61	0.0162
200.993	0.0156
201.376	0.0163
201.76	0.0123
202.143	0.0141
202.527	0.0135
202.91	0.0175
203.293	0.014
203.676	0.0141
204.059	0.0142
204.443	0.0186
204.826	0.017
205.209	0.0131
205.592	0.0098
205.975	0.0085
206.358	0.0113
206.741	0.0129
207.124	0.0141
207.507	0.0141
207.89	0.0125
208.273	0.0121
208.655	0.0114
209.038	0.0114
209.421	0.0116
209.804	0.0092
210.186	0.007
210.569	0.0075
210.951	0.0083
211.334	0.0087
211.717	0.0062
212.099	0.0047
212.482	0.0037
212.864	0.0049
213.246	0.0084
213.629	0.0088
214.011	0.0088
214.393	0.008
214.776	0.0085
215.158	0.0095
215.54	0.0081
215.922	0.0072
216.305	0.0062
216.687	0.0063
217.069	0.0075
217.451	0.0067
217.833	0.008
218.215	0.0087
218.597	0.0087
218.979	0.0088
219.361	0.0091
219.742	0.0089
220.124	0.01
220.506	0.0091
220.888	0.0096
221.27	0.0091
221.651	0.0087
222.033	0.0101
222.415	0.0089
222.796	0.0082
223.178	0.0068
223.559	0.0063
223.941	0.0057
224.322	0.0039
224.704	0.0052
225.085	0.0071
225.466	0.0068
225.848	0.0053
226.229	0.0067
226.61	0.0092
226.992	0.0122
227.373	0.0087
227.754	0.0069
228.135	0.0046
228.516	0.0057
228.897	0.0068
229.278	0.0066
229.659	0.0053
230.04	0.0052
230.421	0.0028
230.802	0.0029
231.183	0.0033
231.564	0.0067
231.944	0.0069
232.325	0.0066
232.706	0.005
233.087	0.0051
233.467	0.0053
233.848	0.0059
234.229	0.0056
234.609	0.0052
234.99	0.0046
235.37	0.0057
235.751	0.0053
236.131	0.0048
236.511	0.0027
236.892	0.003
237.272	0.0025
237.652	0.0032
238.033	0.0018
238.413	0.0017
238.793	0.0008
239.173	0.0015
239.553	0.0022
239.933	0.0039
240.313	0.0037
240.694	0.0028
241.074	0.0022
241.453	0.0023
241.833	0.0024
242.213	0.0025
242.593	0.0022
242.973	0.0029
243.353	0.0022
243.732	0.0012
244.112	0.0014
244.492	0.0022
244.872	0.0041
245.251	0.0041
245.631	0.0035
246.01	0.002
246.39	0.0007
246.769	0.0011
247.149	0.0001
247.528	0.0006
247.908	-0.0007
248.287	0.0009
248.666	0.0014
249.045	0.0017
249.425	0.0005
249.804	-0.0009
250.183	0.0005
250.562	0.001
250.941	0.0011
251.32	-0.0005
251.699	-0.0003
252.078	-0.0001
252.457	0
252.836	-0.0004
253.215	-0.0007
253.594	0.0008
253.973	0.0003
254.352	0.0008
254.731	0.001
255.109	0.0021
255.488	0.0021
255.867	-0.0001
256.245	-0.0005
256.624	-0.0024
257.002	-0.0013
257.381	-0.0012
257.759	0.0014
258.138	0.0002
258.516	0.0011
258.895	0.0005
259.273	0.0017
259.651	0.0003
260.03	0.001
260.408	0.001
260.786	0.0012
261.164	0.0001
261.542	-0.0006
261.921	-0.0001
262.299	-0.0005
262.677	-0.0011
263.055	-0.0012
263.433	-0.0012
263.811	-0.0001
264.188	-0.0019
264.566	-0.002
264.944	-0.003
265.322	-0.0011
265.7	-0.0001
266.077	0.0007
266.455	-0.0012
266.833	-0.0017
267.21	-0.0024
267.588	-0.0017
267.966	-0.0025
268.343	-0.0026
268.721	-0.001
269.098	-0.0001
269.475	0.0005
269.853	0.0004
270.23	0.0003
270.607	0.0006
270.985	0.0001
271.362	-0.0014
271.739	-0.0013
272.116	-0.0027
272.494	-0.0014
272.871	-0.0015
273.248	-0.002
273.625	-0.0021
274.002	-0.0038
274.379	-0.0016
274.756	-0.0029
275.132	-0.0023
275.509	-0.0039
275.886	-0.003
276.263	-0.0024
276.64	-0.0027
277.016	-0.0029
277.393	-0.0032
277.77	-0.0034
278.146	-0.0026
278.523	-0.0027
278.899	-0.0021
279.276	-0.0017
279.652	-0.0012
280.029	-0.0015
280.405	-0.0015
280.782	-0.0017
281.158	-0.001
281.534	-0.0017
281.91	-0.0017
282.287	-0.0022
282.663	-0.0012
283.039	0.0008
283.415	0.0006
283.791	-0.0003
284.167	-0.0017
284.543	-0.0005
284.919	-0.0006
285.295	-0.0016
285.671	-0.0026
286.047	-0.0016
286.423	-0.0001
286.799	-0.0008
287.174	-0.0008
287.55	-0.003
287.926	-0.0016
288.301	-0.0024
288.677	-0.0013
289.053	-0.0008
289.428	-0.001
289.804	-0.0009
290.179	-0.0012
290.555	-0.0007
290.93	-0.0015
291.305	-0.0038
291.681	-0.0042
292.056	-0.0027
292.431	-0.0006
292.806	0.0004
293.182	-0.0003
293.557	-0.0008
293.932	-0.0008
294.307	-0.002
294.682	-0.002
295.057	-0.0032
295.432	-0.0021
295.807	-0.0027
296.182	-0.0023
296.557	-0.002
296.932	-0.0016
297.306	-0.002
297.681	-0.0028
298.056	-0.0019
298.43	-0.0019
298.805	-0.0019
299.18	-0.0032
299.554	-0.0035
299.929	-0.0022
300.303	-0.002
300.678	-0.0011
301.052	-0.0011
301.427	0.0004
301.801	0.0002
302.175	0.0002
302.55	-0.0008
302.924	-0.0007
303.298	-0.0015
303.672	-0.001
304.046	-0.0016
304.421	-0.0012
304.795	-0.0014
305.169	-0.0019
305.543	-0.0032
305.917	-0.0047
306.291	-0.0031
306.664	-0.0014
307.038	0.0002
307.412	-0.0018
307.786	-0.0026
308.16	-0.0033
308.533	-0.0026
308.907	-0.0016
309.281	-0.0013
309.654	-0.0001
310.028	-0.0007
310.401	-0.0014
310.775	-0.0014
311.148	-0.0013
311.522	-0.0009
311.895	-0.0006
312.268	-0.0018
312.642	-0.0008
313.015	-0.002
313.388	-0.002
313.761	-0.0026
314.135	-0.0045
314.508	-0.004
314.881	-0.0045
315.254	-0.0028
315.627	-0.0016
316	-0.0003
316.373	0.0006
316.746	-0.0012
317.118	-0.001
317.491	-0.0013
317.864	-0.001
318.237	-0.0026
318.61	-0.0034
318.982	-0.0029
319.355	-0.003
319.727	-0.0031
320.1	-0.0027
320.473	0
320.845	-0.0001
321.218	0.0001
321.59	-0.0023
321.962	-0.0023
322.335	-0.0033
322.707	-0.0041
323.079	-0.0026
323.452	-0.0032
323.824	-0.0018
324.196	-0.0032
324.568	-0.0011
324.94	-0.0022
325.312	-0.0004
325.684	-0.0008
326.056	-0.0022
326.428	-0.0037
326.8	-0.0043
327.172	-0.0015
327.544	-0.0016
327.915	-0.0013
328.287	-0.0009
328.659	-0
329.031	0
329.402	0.0002
329.774	-0.0014
330.145	-0.0018
330.517	-0.0028
330.888	-0.0014
331.26	-0.0024
331.631	-0.0018
332.003	-0.0027
332.374	-0.002
332.745	-0.0021
333.117	-0.0022
333.488	-0.0002
333.859	-0
334.23	-0.0005
334.601	-0.0031
334.972	-0.0046
335.343	-0.0022
335.714	-0.0013
336.085	0.0001
336.456	-0.0009
336.827	-0.0023
337.198	-0.0033
337.569	-0.0035
337.94	-0.0032
338.31	-0.004
338.681	-0.0033
339.052	-0.0039
339.422	-0.0042
339.793	-0.0041
340.164	-0.003
340.534	-0.0034
340.905	-0.0036
341.275	-0.0028
341.645	0.0003
342.016	-0.0004
342.386	-0.0012
342.756	-0.0037
343.127	-0.005
343.497	-0.0035
343.867	-0.003
344.237	-0.0026
344.607	-0.0048
344.977	-0.0036
345.347	-0.0033
345.717	-0.0037
346.087	-0.0047
346.457	-0.0041
346.827	-0.0047
347.197	-0.0034
347.567	-0.0042
347.936	-0.0009
348.306	-0.0016
348.676	-0
349.046	-0.0016
349.415	-0.0033
349.785	-0.0057
350.154	-0.0061
350.524	-0.0041
350.893	-0.0032
351.263	-0.003
351.632	-0.0035
352.001	-0.0032
352.371	-0.0034
352.74	-0.0038
353.109	-0.0041
353.478	-0.0037
353.847	-0.0022
354.217	-0.0011
354.586	-0.0015
354.955	-0.0023
355.324	-0.003
355.693	-0.0025
356.062	-0.0028
356.43	-0.002
356.799	-0.0015
357.168	-0.0004
357.537	-0.0016
357.906	-0.0034
358.274	-0.0044
358.643	-0.0062
359.011	-0.0041
359.38	-0.0049
359.749	-0.004
360.117	-0.0061
360.486	-0.0064
360.854	-0.0055
361.222	-0.0055
361.591	-0.0056
361.959	-0.0054
362.327	-0.0046
362.695	-0.0051
363.064	-0.0061
363.432	-0.0072
363.8	-0.0051
364.168	-0.004
364.536	-0.0037
364.904	-0.0048
365.272	-0.0055
365.64	-0.0051
366.008	-0.0065
366.376	-0.0057
366.743	-0.0047
367.111	-0.0026
367.479	-0.004
367.847	-0.0044
368.214	-0.0062
368.582	-0.0053
368.949	-0.0046
369.317	-0.0029
369.684	-0.0028
370.052	-0.0021
370.419	-0.0015
370.787	-0.0013
371.154	-0.0045
371.521	-0.0051
371.889	-0.0063
372.256	-0.0043
372.623	-0.0039
372.99	-0.0047
373.357	-0.0041
373.724	-0.0053
374.091	-0.0051
374.458	-0.0068
374.825	-0.009
375.192	-0.0063
375.559	-0.0057
375.926	-0.0023
376.293	-0.0039
376.659	-0.0053
377.026	-0.0075
377.393	-0.008
377.759	-0.008
378.126	-0.0055
378.492	-0.0026
378.859	-0.0024
379.225	-0.0046
379.592	-0.0073
379.958	-0.0056
380.325	-0.0041
380.691	-0.0043
381.057	-0.0046
381.423	-0.0068
381.79	-0.0049
382.156	-0.0054
382.522	-0.0022
382.888	-0.0034
383.254	-0.004
383.62	-0.0052
383.986	-0.0056
384.352	-0.0044
384.718	-0.0048
385.084	-0.0013
385.449	-0.0016
385.815	-0.0014
386.181	-0.0039
386.547	-0.0034
386.912	-0.0048
387.278	-0.0059
387.643	-0.0065
388.009	-0.0049
388.374	-0.0057
388.74	-0.0053
389.105	-0.0048
389.471	-0.0033
389.836	-0.0026
390.201	-0.0037
390.566	-0.0022
390.932	-0.0035
391.297	-0.0027
391.662	-0.0047
392.027	-0.0048
392.392	-0.008
392.757	-0.0078
393.122	-0.0081
393.487	-0.0058
393.852	-0.0063
394.217	-0.0052
394.582	-0.0029
394.946	0.0002
395.311	0.0017
395.676	0.0008
396.04	-0.0062
396.405	-0.0078
396.77	-0.0091
397.134	-0.0045
397.499	-0.0057
397.863	-0.0092
398.227	-0.0107
398.592	-0.0099
398.956	-0.0079
399.32	-0.0055
399.685	-0.0057
400.049	-0.0022
400.413	-0.0013
400.777	-0.0026
401.141	-0.0021
401.505	-0.0034
401.869	-0.003
402.233	-0.0057
402.597	-0.0061
402.961	-0.0066
403.325	-0.0053
403.689	-0.0051
404.053	-0.0039
404.416	-0.0067
404.78	-0.008
405.144	-0.0079
405.507	-0.005
405.871	-0.0063
406.234	-0.004
406.598	-0.004
406.961	-0.0033
407.325	-0.0048
407.688	-0.0069
408.051	-0.0053
408.415	-0.0064
408.778	-0.0056
409.141	-0.0064
409.504	-0.0059
409.867	-0.0065
410.23	-0.0081
410.593	-0.0089
410.956	-0.0079
411.319	-0.005
411.682	-0.0035
412.045	-0.0029
412.408	-0.0056
412.771	-0.0057
413.134	-0.006
413.496	-0.0032
413.859	-0.0038
414.222	-0.005
414.584	-0.0058
414.947	-0.0056
415.309	-0.0046
415.672	-0.0046
416.034	-0.0041
416.396	-0.0033
416.759	-0.0023
417.121	-0.0018
417.483	-0.0014
417.846	-0.002
418.208	-0.0041
418.57	-0.0057
418.932	-0.0056
419.294	-0.0038
419.656	-0.0041
420.018	-0.0025
420.38	-0.0024
420.742	-0.0017
421.104	-0.0037
421.466	-0.0067
421.827	-0.0062
422.189	-0.0059
422.551	-0.0039
422.912	-0.006
423.274	-0.0052
423.636	-0.003
423.997	-0.0028
424.359	-0.0033
424.72	-0.0041
425.081	-0.0039
425.443	-0.0077
425.804	-0.0089
426.165	-0.0104
426.527	-0.0093
426.888	-0.0087
427.249	-0.005
427.61	-0.0008
427.971	-0.0019
428.332	-0.0027
428.693	-0.0066
429.054	-0.0047
429.415	-0.0044
429.776	-0.0035
430.137	-0.0044
430.498	-0.0061
430.858	-0.0033
431.219	-0.0021
431.58	-0.0016
431.94	-0.0031
432.301	-0.0032
432.661	-0.004
433.022	-0.0065
433.382	-0.0059
433.743	-0.0074
434.103	-0.0054
434.463	-0.0097
434.824	-0.008
435.184	-0.0082
435.544	-0.0067
435.904	-0.0053
436.264	-0.0073
436.624	-0.0069
436.985	-0.0064
437.345	-0.0021
437.704	-0.0033
438.064	-0.005
438.424	-0.0098
438.784	-0.0084
439.144	-0.002
439.504	-0.0014
439.863	-0.0033
440.223	-0.0103
440.583	-0.0079
440.942	-0.0053
441.302	-0.0046
441.661	-0.0052
442.021	-0.0067
442.38	-0.0078
442.739	-0.0077
443.099	-0.0077
443.458	-0.0072
443.817	-0.004
444.176	-0.0029
444.536	-0.0035
444.895	-0.0052
445.254	-0.0061
445.613	-0.0043
445.972	-0.0061
446.331	-0.005
446.69	-0.0075
447.049	-0.0067
447.407	-0.0071
447.766	-0.0041
448.125	-0.0046
448.484	-0.0056
448.842	-0.0023
449.201	-0.0015
449.559	-0.0019
449.918	-0.0069
450.276	-0.0072
450.635	-0.0053
450.993	-0.0041
451.352	-0.0042
451.71	-0.0063
452.068	-0.0058
452.426	-0.0055
452.785	-0.0056
453.143	-0.0057
453.501	-0.0061
453.859	-0.006
454.217	-0.0069
454.575	-0.0079
454.933	-0.0061
455.291	-0.0053
455.649	-0.0068
456.006	-0.0083
456.364	-0.0048
456.722	-0.0058
457.079	-0.0058
457.437	-0.0093
457.795	-0.0062
458.152	-0.0069
458.51	-0.0073
458.867	-0.0073
459.225	-0.0041
459.582	-0.001
459.939	-0.0034
460.297	-0.0064
460.654	-0.0086
461.011	-0.0065
461.368	-0.0035
461.725	-0.0032
462.082	-0.002
462.44	-0.0028
462.797	-0.0053
463.153	-0.0049
463.51	-0.0078
463.867	-0.0048
464.224	-0.009
464.581	-0.0107
464.938	-0.0122
465.294	-0.0077
465.651	-0.0051
466.008	-0.0047
466.364	-0.0072
466.721	-0.0057
467.077	-0.0047
467.434	-0.0019
467.79	-0.0027
468.146	-0.0023
468.503	0.0024
468.859	-0.0015
469.215	-0.006
469.571	-0.0133
469.927	-0.0103
470.284	-0.0081
470.64	-0.0022
470.996	0.0006
471.352	0.0024
471.707	0.0001
472.063	-0.0018
472.419	-0.001
472.775	-0.0052
473.131	-0.0041
473.486	-0.0066
473.842	-0.0052
474.198	-0.0052
474.553	-0.0026
474.909	-0.0011
475.264	-0.0023
475.62	-0.0042
475.975	-0.0035
476.331	-0.002
476.686	-0.001
477.041	-0.0035
477.396	-0.0016
477.752	0.0006
478.107	0.0005
478.462	-0.0039
478.817	-0.0069
479.172	-0.0029
479.527	-0.0015
479.882	-0.0007
480.237	-0.0048
480.591	-0.0061
480.946	-0.0086
481.301	-0.0079
481.656	-0.0081
482.01	-0.0066
482.365	-0.0079
482.72	-0.0057
483.074	-0.0049
483.429	-0.0033
483.783	-0.0049
484.137	-0.0017
484.492	-0.0014
484.846	-0.0015
485.2	-0.0075
485.555	-0.0094
485.909	-0.0076
486.263	-0.0043
486.617	-0.0037
486.971	-0.003
487.325	0.0011
487.679	0.004
488.033	-0.0003
488.387	0.003
488.741	0.003
489.094	-0.0028
489.448	-0.0101
489.802	-0.0072
490.156	-0.0004
490.509	-0.0062
490.863	-0.0142
491.216	-0.0129
491.57	-0.0089
491.923	-0.0054
492.277	-0.0063
492.63	-0.0073
492.983	-0.009
493.337	-0.0095
493.69	-0.0065
494.043	-0.004
494.396	-0.0047
494.749	-0.0062
495.102	-0.009
495.455	-0.0074
495.808	-0.0079
496.161	-0.0065
496.514	-0.0069
496.867	-0.0057
497.22	-0.0053
497.572	-0.0075
497.925	-0.0064
498.278	-0.0077
498.63	-0.0001
498.983	-0.0008
499.335	0.0005
499.688	-0.0077
500.04	-0.0091
500.393	-0.0113
500.745	-0.0076
501.097	-0.0049
501.449	-0.0062
501.802	-0.0056
502.154	-0.0059
502.506	-0.0066
502.858	-0.0091
503.21	-0.0112
503.562	-0.0082
503.914	-0.0026
504.266	-0.0004
504.618	-0.0021
504.969	-0.0048
505.321	-0.0106
505.673	-0.0095
506.025	-0.0085
506.376	-0.003
506.728	-0.005
507.079	-0.0073
507.431	-0.0097
507.782	-0.0065
508.134	-0.0035
508.485	-0.0046
508.836	-0.0062
509.188	-0.0078
509.539	-0.0054
509.89	-0.0072
510.241	-0.0108
510.592	-0.0075
510.943	-0.0089
511.294	-0.0074
511.645	-0.0154
511.996	-0.0123
512.347	-0.0092
512.698	-0.0039
513.049	-0.0046
513.399	-0.0063
513.75	-0.0076
514.101	-0.0059
514.451	-0.0058
514.802	-0.0057
515.152	-0.0054
515.503	-0.0024
515.853	-0.0016
516.203	-0.0052
516.554	-0.0086
516.904	-0.0081
517.254	-0.0062
517.604	-0.0063
517.955	-0.0085
518.305	-0.0052
518.655	-0.0034
519.005	-0.0011
519.355	-0.0028
519.705	-0.0072
520.055	-0.0091
520.404	-0.0095
520.754	-0.0049
521.104	-0.0015
521.454	0.0002
521.803	-0.0011
522.153	-0.0042
522.502	-0.0073
522.852	-0.01
523.201	-0.0082
523.551	-0.0074
523.9	-0.0035
524.249	-0.0022
524.599	-0.0042
524.948	-0.0048
525.297	-0.0067
525.646	-0.0058
525.995	-0.0082
526.344	-0.01
526.694	-0.0073
527.042	-0.0061
527.391	-0.0056
527.74	-0.0058
528.089	-0.0066
528.438	-0.0041
528.787	-0.0048
529.135	-0.0021
529.484	-0.0007
529.833	-0.0005
530.181	-0.0034
530.53	-0.0064
530.878	-0.0087
531.227	-0.0043
531.575	-0.0035
531.923	-0.0075
532.271	-0.0114
532.62	-0.011
532.968	-0.0096
533.316	-0.0087
533.664	-0.0107
534.012	-0.0063
534.36	-0.0029
534.708	-0.004
535.056	-0.0044
535.404	-0.0124
535.752	-0.0091
536.1	-0.0096
536.447	-0.0061
536.795	-0.0056
537.143	-0.0048
537.49	-0.0062
537.838	-0.01
538.185	-0.0115
538.533	-0.0092
538.88	-0.0081
539.228	-0.0088
539.575	-0.0098
539.922	-0.0086
540.269	-0.0019
540.617	-0.0014
540.964	-0.0045
541.311	-0.0078
541.658	-0.0066
542.005	-0.0017
542.352	-0.0038
542.699	-0.0107
543.045	-0.0168
543.392	-0.0134
543.739	-0.0086
544.086	-0.0064
544.432	-0.0111
544.779	-0.0078
545.126	-0.0094
545.472	-0.0109
545.819	-0.0131
546.165	-0.0112
546.512	-0.0066
546.858	-0.0039
547.204	-0.0029
547.55	-0.0052
547.897	-0.0074
548.243	-0.0118
548.589	-0.008
548.935	-0.0106
549.281	-0.008
549.627	-0.0111
549.973	-0.006
550.319	-0.0077
550.665	-0.0047
551.01	-0.0098
551.356	-0.0107
551.702	-0.0145
552.048	-0.0183
552.393	-0.0115
552.739	-0.0079
553.084	-0.0013
553.43	-0.0064
553.775	-0.0093
554.12	-0.0092
554.466	-0.001
554.811	-0.0012
555.156	-0.0027
555.502	-0.0065
555.847	-0.0062
556.192	-0.0058
556.537	-0.0088
556.882	-0.0092
557.227	-0.0139
557.572	-0.0079
557.917	-0.0011
558.261	-0.0023
558.606	-0.0101
558.951	-0.017
559.295	-0.0165
559.64	-0.0102
559.985	-0.0095
560.329	-0.0044
560.674	-0.007
561.018	-0.0107
561.363	-0.0141
561.707	-0.0146
562.051	-0.0094
562.395	-0.0003
562.74	0.0007
563.084	0.0009
563.428	-0.004
563.772	-0.0056
564.116	-0.0107
564.46	-0.0139
564.804	-0.0101
565.148	-0.0135
565.492	-0.0094
565.835	-0.0074
566.179	-0.0013
566.523	-0.0084
566.866	-0.0151
567.21	-0.014
567.554	-0.0106
567.897	-0.0106
568.24	-0.0161
568.584	-0.015
568.927	-0.0115
569.271	-0.0112
569.614	-0.0101
569.957	-0.0104
570.3	-0.0047
570.643	-0.0061
570.986	-0.0081
571.329	-0.0064
571.672	-0.0018
572.015	-0.0022
572.358	-0.0033
572.701	0.0015
573.044	-0.006
573.387	-0.0061
573.729	-0.0075
574.072	0.0012
574.414	0.0013
574.757	0.0013
575.099	-0.0151
575.442	-0.0215
575.784	-0.0096
576.127	0.0043
576.469	0.0032
576.811	-0.0081
577.153	-0.0081
577.496	-0.0058
577.838	-0.0057
578.18	-0.0187
578.522	-0.0188
578.864	-0.0215
579.206	0.0011
579.548	0.0016
579.889	-0.0093
580.231	0.0018
580.573	0.0119
580.915	0.0076
581.256	-0.0149
581.598	-0.0326
581.939	-0.0347
582.281	-0.0097
582.622	-0.0124
582.964	-0.0059
583.305	-0.0181
583.646	-0.0066
583.988	0.0277
584.329	0.0117
584.67	-0.0023
585.011	-0.0307
585.352	-0.0372
585.693	-0.0246
586.034	-0.0304
586.375	-0.0242
586.716	-0.018
587.057	-0.0087
587.398	0.0058
587.738	0.0142
588.079	0.0033
588.42	-0.0031
588.76	-0.0261
589.101	-0.0243
589.441	-0.0277
589.782	-0.0125
590.122	-0.0008
590.463	-0.0008
590.803	-0.0119
591.143	-0.012
591.483	-0.0183
591.823	-0.0224
592.164	-0.0242
592.504	-0.0101
592.844	-0.0019
593.184	-0.0098
593.523	-0.021
593.863	-0.0209
594.203	-0.0117
594.543	-0.0014
594.883	-0.0074
595.222	-0.0003
595.562	0.0145
595.901	0.0095
596.241	-0.0039
596.58	-0.0221
596.92	-0.0261
597.259	-0.0294
597.599	-0.0186
597.938	0.0014
598.277	0.0006
598.616	-0.0138
598.955	-0.0235
599.295	-0.0171
599.634	-0.0049
599.973	0.0011
600.312	0.0048
600.65	-0.0073
600.989	-0.0101
601.328	-0.0042
601.667	0.0156
602.005	-0.0019
602.344	-0.0109
602.683	-0.0134
603.021	-0.0035
603.36	-0.0127
603.698	-0.0215
604.037	-0.0234
604.375	-0.0194
604.713	-0.023
605.052	-0.0176
605.39	-0.014
605.728	-0.0112
606.066	0.0077
606.404	0.0085
606.742	-0.0004
607.08	-0.0113
607.418	-0.021
607.756	-0.0076
608.094	-0.0045
608.431	0.0029
608.769	0.0046
609.107	-0.0128
609.444	-0.0072
609.782	-0.0163
610.12	0.0001
610.457	-0.0071
610.794	-0.0211
611.132	-0.0243
611.469	-0.0248
611.806	-0.0179
612.144	-0.0247
612.481	-0.015
612.818	-0.0031
613.155	-0.0118
613.492	-0.0159
613.829	-0.017
614.166	-0.0016
614.503	-0.0039
614.84	-0.0097
615.176	-0.0114
615.513	-0.01
615.85	-0.0081
616.187	-0.0039
616.523	-0.0111
616.86	-0.0148
617.196	-0.0085
617.533	0.0075
617.869	0.0029
618.205	-0.0101
618.542	-0.0262
618.878	-0.0323
619.214	-0.0211
619.55	-0.0135
619.886	-0.0084
620.222	-0.0225
620.558	-0.0169
620.894	-0.0039
621.23	-0.0044
621.566	-0.0094
621.902	-0.015
622.238	-0.0161
622.573	-0.0015
622.909	-0.0087
623.244	-0.0054
623.58	-0.0249
623.916	-0.0227
624.251	-0.0069
624.586	0.0144
624.922	0.0133
625.257	-0.0076
625.592	-0.0214
625.927	-0.0187
626.263	-0.0148
626.598	-0.0114
626.933	-0.0067
627.268	0.0003
627.603	-0.0065
627.938	-0.016
628.272	-0.0136
628.607	-0.0159
628.942	-0.0116
629.277	-0.0153
629.611	-0.0035
629.946	0.0053
630.281	-0.002
630.615	-0.0054
630.949	-0.0189
631.284	-0.014
631.618	-0.007
631.953	0.0018
632.287	0.0019
632.621	-0.0105
632.955	-0.0151
633.289	-0.0147
633.623	-0.0133
633.957	-0.013
634.291	-0.0161
634.625	-0.011
634.959	-0.0157
635.293	-0.0079
635.627	-0.0065
635.96	-0.0024
636.294	-0.0089
636.627	-0.0097
636.961	-0.0018
637.294	-0.0037
637.628	-0.0112
637.961	-0.0161
638.295	-0.0099
638.628	0.0002
638.961	0.0028
639.294	0.003
639.628	-0.0044
639.961	-0.009
640.294	-0.01
640.627	-0.007
640.96	-0.0034
641.293	-0.0032
641.625	-0.0021
641.958	-0.0108
642.291	-0.0153
642.624	-0.0122
642.956	-0.0072
643.289	-0.004
643.621	-0.0076
643.954	-0.0078
644.286	-0.0087
644.619	-0.0131
644.951	-0.013
645.283	-0.0132
645.616	-0.0048
645.948	-0.0052
646.28	0.0006
646.612	-0.0004
646.944	0.0013
647.276	-0.0057
647.608	-0.0065
647.94	-0.0068
648.272	-0.0031
648.603	-0.002
648.935	-0.0001
649.267	-0.0013
649.598	-0.0038
649.93	-0.007
650.261	-0.0061
650.593	0.0007
650.924	0.0114
651.256	0.0099
651.587	0.0012
651.918	-0.006
652.25	-0.0092
652.581	-0.0108
652.912	-0.0124
653.243	-0.0122
653.574	-0.0098
653.905	-0.009
654.236	-0.0087
654.567	-0.0036
654.897	-0.0048
655.228	-0.006
655.559	-0.0015
655.89	0.0011
656.22	-0.0012
656.551	-0.0128
656.881	-0.0168
657.212	-0.0101
657.542	-0.0039
657.872	0.0068
658.203	0.013
658.533	0.1235
658.863	0.0591
659.193	0.0045
659.523	-0.0542
659.853	-0.1108
660.183	-0.068
660.513	-0.0338
660.843	-0.0137
661.173	-0.0067
661.503	-0.0067
661.833	-0.006
662.162	-0.0077
662.492	-0.0101
662.822	-0.0139
663.151	-0.0174
663.481	-0.0118
663.81	-0.0066
664.139	-0.0003
664.469	-0.0028
664.798	-0.0019
665.127	-0.0028
665.456	0.0009
665.785	0.0009
666.114	0.0027
666.443	-0.0023
666.772	0.0002
667.101	0.002
667.43	0.0049
667.759	0.0026
668.088	-0.0008
668.416	-0.0054
668.745	-0.008
669.074	-0.0104
669.402	-0.0048
669.731	-0.0042
670.059	-0.001
670.388	-0.008
670.716	-0.0082
671.044	-0.0102
671.372	-0.0055
671.701	-0.0038
672.029	0.0046
672.357	0.004
672.685	0.0011
673.013	-0.0013
673.341	-0.0082
673.669	-0.0105
673.996	-0.0109
674.324	0.0087
674.652	0.0086
674.98	0.0039
675.307	-0.0073
675.635	-0.0088
675.962	-0.009
676.29	-0.0131
676.617	-0.0087
676.945	-0.0084
677.272	-0.0112
677.599	-0.0143
677.926	-0.0149
678.253	-0.0098
678.581	-0.0116
678.908	-0.0065
679.235	0.0006
679.561	-0.0016
679.888	-0.0106
680.215	-0.0123
680.542	0.0029
680.869	0.0031
681.195	-0.005
681.522	-0.0136
681.849	-0.009
682.175	0.0015
682.502	0.0068
682.828	0.0035
683.154	-0.0067
683.481	-0.0128
683.807	-0.0145
684.133	0.0017
684.459	0.0009
684.785	0.0058
685.111	-0.0106
685.437	-0.0087
685.763	-0.0121
686.089	-0.0026
686.415	0.0007
686.741	0.0007
687.067	0.003
687.392	-0.0003
687.718	0.0005
688.043	0.0001
688.369	0.0003
688.694	-0.0054
689.02	-0.0125
689.345	-0.0171
689.67	-0.0116
689.996	-0.0062
690.321	-0.0032
690.646	-0.0059
690.971	-0.0093
691.296	-0.0078
691.621	-0.0096
691.946	-0.007
692.271	-0.0058
692.596	-0.0043
692.921	-0.0077
693.245	-0.0122
693.57	-0.0041
693.895	0.0055
694.219	0.006
694.544	-0.0048
694.868	-0.0131
695.193	-0.0138
695.517	-0.007
695.841	-0.0036
696.166	-0.0034
696.49	-0.0068
696.814	-0.011
697.138	-0.0076
697.462	-0.0018
697.786	0.0047
698.11	0.0099
698.434	-0.0011
698.758	-0.0132
699.081	-0.0246
699.405	-0.0152
699.729	0.0185
700.052	0.0162
700.376	0.0068
700.7	-0.0135
701.023	-0.0164
701.346	-0.0104
701.67	-0.0105
701.993	-0.0074
702.316	-0.0066
702.639	-0.0012
702.963	-0.0059
703.286	-0.0069
703.609	-0.0085
703.932	-0.0079
704.255	-0.0079
704.578	-0.0051
704.9	-0.002
705.223	0.0012
705.546	-0.003
705.868	-0.0055
706.191	-0.0102
706.514	-0.0106
706.836	-0.0106
707.159	-0.0025
707.481	-0.0048
707.803	-0.0059
708.126	-0.0103
708.448	-0.0083
708.77	0.0002
709.092	0.0026
709.414	0.009
709.736	0.0071
710.058	0.0024
710.38	-0.0054
710.702	-0.0082
711.024	-0.0129
711.345	-0.0159
711.667	-0.0181
711.989	-0.0157
712.31	-0.0111
712.632	-0.0064
712.953	-0.0051
713.275	-0.0035
713.596	-0.0027
713.917	-0.0085
714.239	-0.0107
714.56	-0.0128
714.881	-0.0038
715.202	-0.0005
715.523	0.0085
715.844	-0.0012
716.165	0.0018
716.486	-0.0086
716.807	-0.0021
717.128	-0.0073
717.448	-0.0075
717.769	-0.0095
718.09	-0.0108
718.41	-0.0141
718.731	-0.0139
719.051	-0.0161
719.372	-0.0126
719.692	-0.002
720.012	0.0049
720.332	0.0007
720.653	-0.0021
720.973	0.0021
721.293	-0.0038
721.613	-0.0129
721.933	-0.0202
722.253	-0.0105
722.573	-0.0123
722.892	-0.0168
723.212	-0.0178
723.532	-0.0125
723.851	-0.0064
724.171	-0.0084
724.491	-0.0018
724.81	-0.005
725.129	0
725.449	-0.0019
725.768	0.0023
726.087	0
726.407	-0.0043
726.726	-0.0096
727.045	-0.0143
727.364	-0.0095
727.683	-0.0044
728.002	0.0046
728.321	-0.0023
728.64	-0.0088
728.958	-0.0071
729.277	-0.0046
729.596	-0.0024
729.914	-0.0059
730.233	-0.0042
730.551	-0.0012
730.87	-0.0048
731.188	-0.0051
731.507	-0.0151
731.825	-0.0158
732.143	-0.0178
732.461	-0.0052
732.779	-0.004
733.097	-0.0033
733.415	-0.0002
733.733	0.0073
734.051	-0.0025
734.369	-0.0104
734.687	-0.0252
735.005	-0.0191
735.322	-0.0126
735.64	0.0012
735.957	0.003
736.275	-0.001
736.592	0.0007
736.91	-0.0013
737.227	-0.0016
737.544	-0.0153
737.862	-0.0122
738.179	-0.0098
738.496	-0.0009
738.813	-0.0089
739.13	-0.0202
739.447	-0.0213
739.764	-0.0125
740.081	-0.0076
740.398	-0.0138
740.714	-0.0165
741.031	-0.0103
741.348	-0.0045
741.664	-0.0008
741.981	0.0063
742.297	-0.0022
742.614	-0.0107
742.93	-0.0253
743.246	-0.0192
743.563	-0.01
743.879	-0.0051
744.195	-0.0017
744.511	-0.0041
744.827	-0.0045
745.143	0.0014
745.459	0.0047
745.775	0.0005
746.091	-0.008
746.406	-0.0107
746.722	-0.01
747.038	-0.0091
747.353	-0.0117
747.669	-0.0075
747.984	-0.0067
748.3	-0.0023
748.615	-0.0019
748.93	-0.002
749.246	-0.0102
749.561	-0.0113
749.876	-0.0132
750.191	-0.0067
750.506	-0.0046
750.821	-0.0059
751.136	-0.0059
751.451	-0.0094
751.766	-0.0081
752.08	-0.003
752.395	0.0026
752.71	0.0075
753.024	0.0023
753.339	-0.001
753.653	-0.0081
753.968	-0.0016
754.282	0.001
754.596	0.0024
754.911	-0.0038
755.225	0.0009
755.539	-0.0009
755.853	-0.0039
756.167	-0.0101
756.481	-0.0066
756.795	-0.0085
757.109	-0.0085
757.423	-0.0104
757.736	-0.0058
758.05	-0.0092
758.364	-0.0054
758.677	-0.0073
758.991	-0.0077
759.304	-0.004
759.618	0.0033
759.931	0.0019
760.244	0.0063
760.558	-0.0018
760.871	-0.0027
761.184	-0.019
761.497	-0.023
761.81	-0.0186
762.123	-0.0024
762.436	-0.0005
762.749	-0.0045
763.062	-0.0093
763.374	-0.0022
763.687	-0.0043
764	-0.0081
764.312	-0.019
764.625	-0.0167
764.937	-0.0212
765.25	-0.0126
765.562	-0.0028
765.874	0.0006
766.186	0.0004
766.499	-0.0101
766.811	-0.0051
767.123	0.0026
767.435	0.0049
767.747	-0.0022
768.059	-0.0155
768.37	-0.0176
768.682	-0.0205
768.994	-0.0199
769.306	-0.0189
769.617	-0.0127
769.929	-0.0095
770.24	-0.0149
770.552	-0.0083
770.863	-0.0051
771.174	-0.005
771.486	-0.0117
771.797	-0.0176
772.108	-0.0215
772.419	-0.0269
772.73	-0.019
773.041	-0.0111
773.352	-0.006
773.663	-0.013
773.974	-0.0096
774.285	-0.0115
774.595	-0.0107
774.906	-0.0108
775.217	-0.006
775.527	-0.001
775.838	-0.0054
776.148	-0.0012
776.458	-0.0023
776.769	-0.0017
777.079	-0.0075
777.389	-0.0071
777.699	-0.0046
778.009	-0.0062
778.319	-0.0076
778.629	-0.015
778.939	-0.0127
779.249	-0.0117
779.559	-0.005
779.869	-0.0052
780.178	-0.004
780.488	-0.002
780.798	-0.0036
781.107	-0.0019
781.417	-0.004
781.726	-0.002
782.035	-0.0029
782.345	-0.0064
782.654	-0.0075
782.963	-0.0095
783.272	-0.0047
783.581	0.0003
783.89	0.0084
784.199	0
784.508	-0.0084
784.817	-0.0209
785.126	-0.015
785.434	-0.0076
785.743	-0.0101
786.052	-0.0118
786.36	-0.0166
786.669	-0.0118
786.977	-0.0122
787.285	-0.0086
787.594	-0.0071
787.902	-0.0026
788.21	-0.0083
788.518	0.0008
788.826	-0.0024
789.135	-0.0013
789.442	-0.0122
789.75	-0.014
790.058	-0.0138
790.366	-0.0152
790.674	-0.0091
790.981	-0.0015
791.289	0.0061
791.597	0.0021
791.904	-0.0055
792.212	-0.0101
792.519	-0.0124
792.826	-0.0032
793.134	-0.0008
793.441	0.0061
793.748	0.0017
794.055	0.0061
794.362	0.001
794.669	-0.0066
794.976	-0.0092
795.283	-0.0131
795.59	-0.0056
795.897	-0.0121
796.203	-0.0088
796.51	0.0041
796.817	0.0111
797.123	-0.0003
797.43	-0.0161
797.736	-0.02
798.042	-0.0161
798.349	-0.0149
798.655	-0.0214
798.961	-0.0118
799.267	-0.0055
799.573	0.0022
799.879	0.0051
800.185	0.0072
800.491	0.0005
800.797	-0.0121
801.103	-0.0189
801.408	-0.0162
801.714	-0.0063
802.02	-0.0059
802.325	-0.0033
802.631	-0.0053
802.936	-0.0045
803.242	-0.008
803.547	-0.0131
803.852	-0.0107
804.157	-0.0079
804.462	0.0004
804.768	0.0005
805.073	-0.0021
805.378	-0.0072
805.682	-0.0083
805.987	-0.0058
806.292	-0.0036
806.597	-0.0029
806.902	-0.0016
807.206	-0.0064
807.511	-0.0104
807.815	-0.016
808.12	-0.0047
808.424	0.0052
808.728	0.0145
809.033	0.0132
809.337	0.0009
809.641	-0.0141
809.945	-0.0159
810.249	-0.004
810.553	0.0018
810.857	-0.0001
811.161	-0.0097
811.465	-0.0077
811.768	-0.0184
812.072	-0.0174
812.376	-0.017
812.679	-0.0027
812.983	0.0002
813.286	-0.0012
813.59	-0.0039
813.893	-0.002
814.196	-0.0037
814.499	-0.006
814.803	-0.0156
815.106	-0.0132
815.409	-0.0146
815.712	-0.0045
816.015	0.0042
816.318	0.0059
816.62	0.0005
816.923	-0.0134
817.226	-0.0171
817.528	-0.0131
817.831	-0.0027
818.133	-0.0055
818.436	-0.0077
818.738	-0.0109
819.041	-0.0053
819.343	-0.0073
819.645	-0.0033
819.947	0.0028
820.249	0.0001
820.551	-0.0059
820.853	-0.0198
821.155	-0.0164
821.457	-0.0191
821.759	-0.0132
822.061	-0.0121
822.362	-0.0071
822.664	-0.0079
822.966	-0.0065
823.267	-0.0061
823.569	-0.0082
823.87	-0.0213
824.171	-0.0263
824.473	-0.0288
824.774	-0.0183
825.075	-0.0115
825.376	-0.0037
825.677	-0.0022
825.978	-0.0099
826.279	-0.0173
826.58	-0.0234
826.881	-0.0217
827.181	-0.0209
827.482	-0.0234
827.783	-0.0196
828.083	-0.0067
828.384	0.0005
828.684	-0.0034
828.985	-0.0071
829.285	-0.0003
829.585	0.0016
829.885	-0.0014
830.185	-0.0115
830.486	-0.0115
830.786	-0.0233
831.086	-0.0232
831.385	-0.0231
831.685	-0.0096
831.985	-0.0101
832.285	-0.0117
832.585	-0.0073
832.884	-0.0028
833.184	-0.007
833.483	-0.0191
833.783	-0.0238
834.082	-0.0149
834.381	-0.0033
834.681	0.0017
834.98	-0.0111
835.279	-0.0181
835.578	-0.0122
835.877	-0.0057
836.176	-0.0096
836.475	-0.0193
836.774	-0.0138
837.072	-0.0017
837.371	0.0083
837.67	0.0098
837.968	-0.0017
838.267	-0.0113
838.565	-0.0176
838.864	-0.0114
839.162	-0.0167
839.46	-0.0145
839.759	-0.0208
840.057	-0.0103
840.355	-0.0035
840.653	-0.0017
840.951	-0.006
841.249	-0.0298
841.547	-0.0417
841.845	-0.0281
842.142	-0.0098
842.44	0.0038
842.738	0.0014
843.035	-0.0099
843.333	-0.0116
843.63	-0.0218
843.928	0.0004
844.225	-0.0086
844.522	-0.0239
844.82	-0.0334
845.117	-0.0231
845.414	-0.005
845.711	-0.0119
846.008	-0.0212
846.305	-0.0227
846.602	-0.0151
846.898	-0.0173
847.195	-0.0308
847.492	-0.0385
847.788	-0.0261
848.085	-0.0129
848.382	-0.0131
848.678	0.0001
848.974	-0.0009
849.271	0.0091
849.567	-0.0161
849.863	-0.0289
850.159	-0.0273
850.455	-0.0045
850.751	0.0175
851.047	0.0185
851.343	0.0182
851.639	0.0105
851.935	0.0204
852.23	0.0104
852.526	0.0017
852.822	-0.0179
853.117	-0.008
853.413	-0.0034
853.708	-0.0002
854.003	-0.0098
854.299	-0.0161
854.594	-0.0004
854.889	-0.0015
855.184	0.0087
855.479	-0.0087
855.774	-0.0163
856.069	-0.0194
856.364	-0.0155
856.659	-0.0036
856.954	0.0004
857.248	-0.0195
857.543	-0.0313
857.837	-0.0459
858.132	-0.0256
858.426	-0.0214
858.721	-0.013
859.015	-0.0172
859.309	-0.0097
859.604	-0.0082
859.898	-0.0044
860.192	-0.0069
860.486	-0.0149
860.78	-0.0379
861.074	-0.0261
861.367	-0.0207
861.661	0.0114
861.955	0.0004
862.248	0.0059
862.542	-0.0245
862.836	-0.0425
863.129	-0.0269
863.422	-0.0207
863.716	-0.0136
864.009	-0.0343
864.302	-0.0169
864.595	-0.0006
864.889	0.009
865.182	-0.0148
865.475	-0.0308
865.767	-0.0414
866.06	-0.0254
866.353	-0.0464
866.646	-0.0414
866.938	-0.0419
867.231	-0.0323
867.524	-0.0197
867.816	-0.0185
868.109	-0.0095
868.401	-0.0283
868.693	-0.0163
868.985	0.0168
869.278	0.0255
869.57	0.0089
869.862	-0.0244
870.154	-0.0383
870.446	-0.0017
870.738	-0.0251
871.029	-0.0242
871.321	-0.0449
871.613	-0.0146
871.904	-0.0227
872.196	-0.0174
872.487	-0.0474
872.779	-0.0263
873.07	-0.0316
873.362	-0.0023
873.653	-0.0011
873.944	-0.0022
874.235	-0.0126
874.526	-0.0094
874.817	-0.0169
875.108	-0.036
875.399	-0.0309
875.69	-0.0356
875.981	-0.0045
876.271	-0.0089
876.562	-0.0223
876.853	-0.0321
877.143	-0.0474
877.434	-0.0074
877.724	0.0066
878.014	0.0215
878.305	0.0027
878.595	-0.0333
878.885	-0.0541
879.175	-0.0333
879.465	0.0117
879.755	0.0233
880.045	0.011
880.335	-0.0051
880.624	0.0048
880.914	0.0048
