Data from DIblank1_081117_1b_Absorbance_10-06-05-772.txt Node
Date: Fri Aug 11 10:06:05 MDT 2017
User: Tank Lab
Spectrometer: FLMS01220
Trigger mode: 0
Integration Time (sec): 1.000000E-1
Scans to average: 10
Electric dark correction enabled: true
Nonlinearity correction enabled: false
Boxcar width: 1
XAxis mode: Wavelengths
Number of Pixels in Spectrum: 2048
>>>>>Begin Spectral Data<<<<<
179.47	0.1002
179.856	0.1002
180.241	0.0472
180.626	-0.697
181.011	-0
181.396	-0.4657
181.781	-0.3895
182.166	-0.3905
182.551	-0
182.936	0.3681
183.321	-0.8668
183.706	-0
184.091	-0
184.476	-0.5914
184.86	0.1085
185.245	0.8141
185.63	-0.947
186.015	0.2967
186.399	-0
186.784	-0.8358
187.169	-0.4269
187.553	-0
187.938	0.5642
188.322	0.1406
188.707	0.0338
189.091	0.0204
189.475	0.0011
189.86	-0.0094
190.244	-0.0078
190.629	-0.0022
191.013	0.0099
191.397	0.0012
191.781	0.0069
192.165	0.0121
192.55	0.0249
192.934	0.0197
193.318	0.0177
193.702	0.0083
194.086	0.0175
194.47	0.0192
194.854	0.024
195.238	0.0172
195.622	0.0133
196.006	0.0092
196.389	0.0084
196.773	0.0048
197.157	0.0096
197.541	0.0096
197.924	0.0135
198.308	0.0079
198.692	0.0072
199.075	0.0052
199.459	0.0069
199.843	0.0111
200.226	0.01
200.61	0.0133
200.993	0.0085
201.376	0.0068
201.76	0.0039
202.143	0.0078
202.527	0.0154
202.91	0.0164
203.293	0.0106
203.676	0.0081
204.059	0.0108
204.443	0.0146
204.826	0.0102
205.209	0.0068
205.592	0.0059
205.975	0.0069
206.358	0.0059
206.741	0.0041
207.124	0.0067
207.507	0.0063
207.89	0.0097
208.273	0.0078
208.655	0.0072
209.038	0.0052
209.421	0.0063
209.804	0.006
210.186	0.0041
210.569	0.0029
210.951	0.0052
211.334	0.0044
211.717	0.0047
212.099	0.003
212.482	0.0056
212.864	0.0068
213.246	0.0061
213.629	0.0034
214.011	0.0003
214.393	0.0034
214.776	0.0054
215.158	0.0071
215.54	0.005
215.922	0.0038
216.305	0.0035
216.687	0.0027
217.069	0.001
217.451	0.0005
217.833	0.0009
218.215	0.0041
218.597	0.0037
218.979	0.0052
219.361	0.0046
219.742	0.0037
220.124	0.0031
220.506	0.0023
220.888	0.0041
221.27	0.0046
221.651	0.0055
222.033	0.0065
222.415	0.0041
222.796	0.0053
223.178	0.0049
223.559	0.0086
223.941	0.0064
224.322	0.0062
224.704	0.0045
225.085	0.0069
225.466	0.0069
225.848	0.0065
226.229	0.0021
226.61	0.0016
226.992	0.002
227.373	0.0048
227.754	0.0036
228.135	0.0024
228.516	0.0038
228.897	0.0062
229.278	0.0051
229.659	0.0043
230.04	0.0029
230.421	0.0044
230.802	0.0037
231.183	0.0048
231.564	0.0047
231.944	0.0038
232.325	0.0027
232.706	0.0034
233.087	0.0044
233.467	0.0037
233.848	0.0036
234.229	0.0019
234.609	0.0032
234.99	0.0013
235.37	0.0029
235.751	0.0015
236.131	0.0024
236.511	0.0021
236.892	0.0023
237.272	0.0022
237.652	0.0026
238.033	0.0012
238.413	0.0013
238.793	0.0016
239.173	0.0033
239.553	0.0038
239.933	0.0038
240.313	0.004
240.694	0.0048
241.074	0.0039
241.453	0.0039
241.833	0.0033
242.213	0.0042
242.593	0.0042
242.973	0.003
243.353	0.0017
243.732	0.0018
244.112	0.0014
244.492	0.0008
244.872	0.0006
245.251	0.0015
245.631	0.0021
246.01	0.0014
246.39	0.0014
246.769	0.0027
247.149	0.0032
247.528	0.0036
247.908	0.0025
248.287	0.0032
248.666	0.0035
249.045	0.0048
249.425	0.0035
249.804	0.0037
250.183	0.0014
250.562	0.0017
250.941	0.0021
251.32	0.0044
251.699	0.0045
252.078	0.003
252.457	0.0007
252.836	0.0006
253.215	0.001
253.594	0.0015
253.973	0.0012
254.352	0.0014
254.731	0.0011
255.109	0.0016
255.488	0.0017
255.867	0.0026
256.245	0.0023
256.624	0.0021
257.002	0.0016
257.381	0.0014
257.759	0.001
258.138	0.0016
258.516	0.002
258.895	0.002
259.273	0.0021
259.651	0.0014
260.03	0.0011
260.408	0.0012
260.786	0.0014
261.164	0.0014
261.542	0.0007
261.921	0.0003
262.299	0.0009
262.677	0.0017
263.055	0.0024
263.433	0.001
263.811	0.0017
264.188	0.0022
264.566	0.0044
264.944	0.004
265.322	0.004
265.7	0.0031
266.077	0.002
266.455	0.0016
266.833	0.0012
267.21	0.0013
267.588	0.0014
267.966	0.002
268.343	0.0015
268.721	0.0019
269.098	0.0021
269.475	0.0032
269.853	0.0007
270.23	0.0007
270.607	0.0023
270.985	0.003
271.362	0.0025
271.739	0
272.116	0.0005
272.494	0.0015
272.871	0.0016
273.248	0.0017
273.625	0.0008
274.002	0.0013
274.379	0.0019
274.756	0.0022
275.132	0.0026
275.509	0.0037
275.886	0.0026
276.263	0.0013
276.64	0.0002
277.016	0.0005
277.393	0.0002
277.77	-0.0004
278.146	0.0002
278.523	-0.0004
278.899	-0.0007
279.276	-0.0009
279.652	0.0004
280.029	0.0013
280.405	0.0019
280.782	0.0014
281.158	0.0009
281.534	0.0008
281.91	0.0007
282.287	0.0003
282.663	-0.0005
283.039	-0.0007
283.415	-0.0006
283.791	-0.0015
284.167	-0.0007
284.543	0.0017
284.919	0.0032
285.295	0.0032
285.671	0.0009
286.047	0.0007
286.423	0.0008
286.799	0.0019
287.174	0.0017
287.55	0.0024
287.926	0.0025
288.301	0.0028
288.677	0.0014
289.053	-0.0002
289.428	-0.0012
289.804	-0.0011
290.179	-0.0005
290.555	0.0005
290.93	0.0003
291.305	-0.0006
291.681	-0.0004
292.056	-0.0004
292.431	0.0002
292.806	-0.0005
293.182	0.0001
293.557	0.002
293.932	0.0027
294.307	0.0033
294.682	0.0014
295.057	0.001
295.432	0.0014
295.807	0.0013
296.182	0.0014
296.557	0
296.932	0.0018
297.306	0.0023
297.681	0.0033
298.056	0.0023
298.43	0.0018
298.805	0.0014
299.18	0.001
299.554	0.0013
299.929	0.0014
300.303	0.0018
300.678	0.0012
301.052	0.0031
301.427	0.0028
301.801	0.0029
302.175	0.0004
302.55	0.0015
302.924	0.0032
303.298	0.0028
303.672	0.0018
304.046	0
304.421	0.0019
304.795	0.0034
305.169	0.0036
305.543	0.0026
305.917	0.0005
306.291	-0.0001
306.664	0.0005
307.038	0.0013
307.412	0.0016
307.786	0.0017
308.16	0.0023
308.533	0.0031
308.907	0.003
309.281	0.0029
309.654	0.0035
310.028	0.0018
310.401	0.0012
310.775	-0.0001
311.148	0.0038
311.522	0.0044
311.895	0.0049
312.268	0.0026
312.642	0.0035
313.015	0.0049
313.388	0.0056
313.761	0.004
314.135	0.002
314.508	0.001
314.881	0.0006
315.254	0.0006
315.627	-0
316	0.0023
316.373	0.003
316.746	0.0051
317.118	0.0024
317.491	0.0013
317.864	-0.0004
318.237	0.0009
318.61	0.0015
318.982	0.0017
319.355	0.0017
319.727	0.0015
320.1	0.0025
320.473	0.0014
320.845	0.0005
321.218	0.0001
321.59	-0
321.962	0.001
322.335	0.0001
322.707	0.0004
323.079	0.0014
323.452	0.0027
323.824	0.0041
324.196	0.0021
324.568	0.0015
324.94	0.0016
325.312	0.0019
325.684	0.0022
326.056	0.0011
326.428	0.0024
326.8	0.0021
327.172	0.0025
327.544	0.0026
327.915	0.0028
328.287	0.004
328.659	0.0039
329.031	0.0044
329.402	0.0027
329.774	0.0023
330.145	0.0019
330.517	0.0031
330.888	0.0038
331.26	0.0042
331.631	0.0022
332.003	0.001
332.374	-0.0001
332.745	0.0021
333.117	0.0017
333.488	0.0016
333.859	0.0018
334.23	0.0031
334.601	0.0041
334.972	0.0031
335.343	0.0015
335.714	0.0009
336.085	-0.0006
336.456	0.0002
336.827	-0.0006
337.198	0.0008
337.569	0.0002
337.94	0.0002
338.31	-0.0002
338.681	0.0008
339.052	0.0028
339.422	0.0037
339.793	0.0024
340.164	0.0013
340.534	0.0028
340.905	0.0038
341.275	0.0026
341.645	0.0004
342.016	0.0004
342.386	0.0013
342.756	0.0011
343.127	0.0009
343.497	0.0021
343.867	0.0017
344.237	0.0009
344.607	0.0002
344.977	0.0015
345.347	0.0018
345.717	0.0038
346.087	0.0031
346.457	0.0028
346.827	-0.0002
347.197	0.0009
347.567	0.0013
347.936	0.002
348.306	0.0019
348.676	0.0027
349.046	0.0035
349.415	0.004
349.785	0.0035
350.154	0.0024
350.524	0.0017
350.893	0.001
351.263	0.0002
351.632	0.0003
352.001	0.0004
352.371	0.0012
352.74	0
353.109	0.0011
353.478	0.0022
353.847	0.0029
354.217	0.0032
354.586	0.0017
354.955	0.0009
355.324	0.0001
355.693	0.0008
356.062	0.001
356.43	0.001
356.799	0.0002
357.168	0.0004
357.537	-0.001
357.906	0.0001
358.274	0.0014
358.643	0.0019
359.011	0.0023
359.38	0
359.749	0.0023
360.117	0.0034
360.486	0.0036
360.854	0.0015
361.222	0.0008
361.591	-0.0007
361.959	-0.0004
362.327	-0.0014
362.695	0.0019
363.064	0.0039
363.432	0.003
363.8	0.0019
364.168	0.0001
364.536	0.0008
364.904	0.0002
365.272	0.0014
365.64	0.0006
366.008	0.0006
366.376	0.0001
366.743	0.0013
367.111	0.0008
367.479	-0.0003
367.847	-0.0024
368.214	-0.0009
368.582	0.0001
368.949	0.0025
369.317	0.0023
369.684	0.0019
370.052	0.0007
370.419	0.0014
370.787	0.0034
371.154	0.0043
371.521	0.0034
371.889	0.0011
372.256	0.0008
372.623	0.0011
372.99	0.0028
373.357	0.0026
373.724	0.0025
374.091	0.0033
374.458	0.004
374.825	0.0058
375.192	0.0031
375.559	0.0033
375.926	0.0027
376.293	0.0016
376.659	0.0024
377.026	0.0014
377.393	0.0054
377.759	0.0036
378.126	0.0033
378.492	0.0008
378.859	0.0027
379.225	0.0036
379.592	0.0043
379.958	0.0042
380.325	0.0021
380.691	0.004
381.057	0.0049
381.423	0.0049
381.79	0.0026
382.156	0.0007
382.522	0.0009
382.888	0.0015
383.254	-0.0006
383.62	0.0029
383.986	0.0012
384.352	0.0046
384.718	0.0033
385.084	0.0039
385.449	0.0019
385.815	0.0017
386.181	0.0014
386.547	0.0023
386.912	0.0016
387.278	0.0022
387.643	0.0007
388.009	0.0002
388.374	0.0002
388.74	0.0003
389.105	0.0006
389.471	-0.0001
389.836	0.0017
390.201	0.002
390.566	0.0015
390.932	-0.0018
391.297	-0.0023
391.662	0
392.027	0.0031
392.392	0.0033
392.757	0.003
393.122	0.0022
393.487	0.004
393.852	0.0043
394.217	0.0045
394.582	0.002
394.946	0.0011
395.311	0.0002
395.676	0.0001
396.04	-0.0012
396.405	0.0004
396.77	0.0016
397.134	0.0028
397.499	0.0037
397.863	0.0028
398.227	0.0021
398.592	0.0006
398.956	-0.0009
399.32	0.0002
399.685	0.002
400.049	0.0054
400.413	0.0054
400.777	0.0019
401.141	0.0008
401.505	0.0006
401.869	0.0039
402.233	0.0059
402.597	0.007
402.961	0.0037
403.325	0.0042
403.689	0.0036
404.053	0.0047
404.416	0.0018
404.78	0.0006
405.144	-0.0006
405.507	-0.0008
405.871	0.0006
406.234	0.0053
406.598	0.0059
406.961	0.0084
407.325	0.007
407.688	0.0044
408.051	0.0013
408.415	0.0006
408.778	0.0023
409.141	0.0026
409.504	0.0019
409.867	0.0039
410.23	0.0034
410.593	0.0037
410.956	0.0016
411.319	0.0036
411.682	0.0023
412.045	0.0006
412.408	-0.0017
412.771	-0.0008
413.134	0.0006
413.496	-0.0007
413.859	-0.0021
414.222	-0.0009
414.584	0.0004
414.947	0.0014
415.309	0.0029
415.672	0.0029
416.034	0.0032
416.396	0.0014
416.759	0.0027
417.121	0.0025
417.483	0.0052
417.846	0.0059
418.208	0.0071
418.57	0.0039
418.932	0.0037
419.294	0.0039
419.656	0.0034
420.018	0.0019
420.38	0.0006
420.742	0.002
421.104	0.0009
421.466	0.002
421.827	0.003
422.189	0.0055
422.551	0.004
422.912	0.0022
423.274	-0.0006
423.636	0.001
423.997	0.0009
424.359	0.0014
424.72	0.0026
425.081	0.0036
425.443	0.0029
425.804	-0.0008
426.165	-0.0028
426.527	-0.0008
426.888	-0.0001
427.249	0.0008
427.61	0.0007
427.971	0.0002
428.332	0.0006
428.693	0.0012
429.054	0.0018
429.415	0.0023
429.776	0.0019
430.137	0.0038
430.498	0.0034
430.858	0.0004
431.219	-0.001
431.58	0.0001
431.94	0.0022
432.301	0.0027
432.661	0.0016
433.022	0.0025
433.382	0.0024
433.743	0.0024
434.103	0.0029
434.463	0.0044
434.824	0.0045
435.184	0.0024
435.544	0.0019
435.904	0.0024
436.264	0.0019
436.624	-0.0019
436.985	-0.0036
437.345	-0.0014
437.704	0.0006
438.064	0.0019
438.424	0.0018
438.784	0.0021
439.144	0.0007
439.504	-0.0025
439.863	-0.0031
440.223	-0.0021
440.583	0.0026
440.942	0.0034
441.302	0.0018
441.661	-0.002
442.021	-0.0022
442.38	-0.0002
442.739	0.0025
443.099	-0.0007
443.458	0.0002
443.817	0.0018
444.176	0.0055
444.536	0.0043
444.895	0.0019
445.254	0.0021
445.613	0.0008
445.972	0.0003
446.331	0.0013
446.69	0.0018
447.049	0.0029
447.407	0.0032
447.766	0.0024
448.125	0.0027
448.484	-0.0001
448.842	0.001
449.201	0.0006
449.559	0.0021
449.918	0.0023
450.276	0.001
450.635	0.002
450.993	-0.0001
451.352	0.0013
451.71	-0.0003
452.068	0.0014
452.426	-0
452.785	-0.0002
453.143	0.0018
453.501	0.0013
453.859	0.0011
454.217	-0.0012
454.575	0.0022
454.933	0.0044
455.291	0.0054
455.649	0.0059
456.006	0.0029
456.364	0.0033
456.722	0.0002
457.079	0.0037
457.437	0.0006
457.795	0.0001
458.152	-0.0024
458.51	0.0008
458.867	0.0027
459.225	0.0026
459.582	0.0007
459.939	-0.0004
460.297	0.0029
460.654	0.0041
461.011	0.0035
461.368	-0.0014
461.725	-0.0018
462.082	-0.0021
462.44	0.0001
462.797	0.0013
463.153	0.0044
463.51	0.004
463.867	0.002
464.224	0.0019
464.581	0.0022
464.938	0.0019
465.294	0.0027
465.651	0.0007
466.008	-0.0006
466.364	-0.0031
466.721	-0.0016
467.077	0.003
467.434	0.0027
467.79	0.0032
468.146	0.0025
468.503	0.0018
468.859	0.0025
469.215	0.0017
469.571	0.0036
469.927	-0.0014
470.284	-0.0039
470.64	-0.0074
470.996	-0.0038
471.352	-0.0002
471.707	0.0039
472.063	0.0041
472.419	0.0043
472.775	0.0038
473.131	0.0052
473.486	0.0029
473.842	0.0006
474.198	0.0008
474.553	0.0023
474.909	0.005
475.264	0.0025
475.62	0.001
475.975	0.002
476.331	0.0053
476.686	0.0036
477.041	0.0034
477.396	0.0009
477.752	0.0046
478.107	0.0023
478.462	0.0042
478.817	0.0042
479.172	0.0055
479.527	0.0041
479.882	0.0046
480.237	0.0028
480.591	-0.0003
480.946	-0.0027
481.301	-0.0006
481.656	0.0023
482.01	0.0029
482.365	-0.0002
482.72	-0.0023
483.074	-0.0017
483.429	0.0013
483.783	0.0018
484.137	0.0012
484.492	-0.0006
484.846	0.0014
485.2	0.0009
485.555	0.0015
485.909	0.0008
486.263	0.0024
486.617	0.0017
486.971	-0.0001
487.325	-0.0011
487.679	-0.001
488.033	-0.0017
488.387	-0.0013
488.741	0.0019
489.094	0.0031
489.448	0.0017
489.802	0.0001
490.156	0.001
490.509	0.0021
490.863	0.0005
491.216	-0.0005
491.57	0.001
491.923	0.0021
492.277	0.004
492.63	0.0016
492.983	-0.0006
493.337	-0.0004
493.69	0.0003
494.043	0.0015
494.396	-0.0006
494.749	0.0023
495.102	0.0003
495.455	-0
495.808	-0.0021
496.161	0.0029
496.514	0.0038
496.867	0.0052
497.22	0.003
497.572	0.0047
497.925	0.0049
498.278	0.005
498.63	0.001
498.983	0.0003
499.335	0.0001
499.688	0.0024
500.04	0.0014
500.393	0.0033
500.745	0.0025
501.097	0.0026
501.449	0.0008
501.802	0.0016
502.154	0.0006
502.506	0.0005
502.858	0.0001
503.21	0
503.562	0.0009
503.914	0.002
504.266	0.0027
504.618	0.0031
504.969	0.0022
505.321	0.0035
505.673	0.0025
506.025	0.0038
506.376	0.0039
506.728	0.0025
507.079	0.0002
507.431	-0.0013
507.782	0.0003
508.134	0.0015
508.485	0.0015
508.836	0.0015
509.188	0.0029
509.539	0.004
509.89	0.0047
510.241	0.0017
510.592	-0.0012
510.943	-0.0031
511.294	-0.001
511.645	0.0027
511.996	0.0052
512.347	0.0035
512.698	0.0013
513.049	-0.0032
513.399	-0.0015
513.75	0.0001
514.101	0.0012
514.451	0.0006
514.802	-0.0004
515.152	0.0021
515.503	0.0031
515.853	0.0012
516.203	0.0018
516.554	0.0043
516.904	0.0069
517.254	0.008
517.604	0.0037
517.955	0.0024
518.305	-0.0001
518.655	0.0003
519.005	0.0016
519.355	0.0029
519.705	0.0025
520.055	0.0007
520.404	-0.0025
520.754	0
521.104	-0.0027
521.454	-0.0023
521.803	-0.0034
522.153	-0.0012
522.502	0.0002
522.852	0.0006
523.201	0.0004
523.551	0.0007
523.9	0.0035
524.249	0.0052
524.599	0.0061
524.948	0.0022
525.297	0.0023
525.646	0.0001
525.995	-0.0001
526.344	0.0013
526.694	0.0029
527.042	0.0057
527.391	0.0032
527.74	0.004
528.089	0.001
528.438	0.0044
528.787	0.0054
529.135	0.0048
529.484	0.004
529.833	0.0034
530.181	0.0048
530.53	0.004
530.878	0.0014
531.227	0.0027
531.575	0.0009
531.923	0.0016
532.271	0.0013
532.62	0.0031
532.968	0.0035
533.316	-0.0009
533.664	-0.0032
534.012	-0.0019
534.36	0.0003
534.708	0.0012
535.056	-0.0002
535.404	0.0006
535.752	0.0001
536.1	-0.0002
536.447	-0.0039
536.795	-0.0008
537.143	-0.0016
537.49	0.0027
537.838	-0.0027
538.185	-0.0012
538.533	-0.0034
538.88	-0.0028
539.228	-0.0051
539.575	-0.0006
539.922	0.0041
540.269	0.0033
540.617	0.0028
540.964	0.0014
541.311	0.001
541.658	-0.0014
542.005	-0.0003
542.352	0.0014
542.699	0.0023
543.045	-0.0002
543.392	0.0007
543.739	0.0033
544.086	0.0022
544.432	0.0044
544.779	0.0025
545.126	0.0026
545.472	-0.0011
545.819	-0.0044
546.165	-0.0038
546.512	-0.0058
546.858	-0.0069
547.204	-0.0057
547.55	-0.0016
547.897	0.0004
548.243	0.0003
548.589	-0.0051
548.935	-0.0029
549.281	-0.0032
549.627	0.002
549.973	0.0005
550.319	0.0024
550.665	0.0009
551.01	-0.0005
551.356	-0.0018
551.702	-0.0034
552.048	-0.003
552.393	-0.004
552.739	-0.0009
553.084	-0.0021
553.43	-0.0001
553.775	0.0014
554.12	0.0028
554.466	-0.0016
554.811	-0.0024
555.156	-0.003
555.502	-0.0001
555.847	-0.0003
556.192	0.0008
556.537	0.0001
556.882	-0.001
557.227	-0.0005
557.572	-0.0014
557.917	-0.0019
558.261	-0.002
558.606	0.0003
558.951	-0.0014
559.295	-0.0021
559.64	-0.0046
559.985	0.0025
560.329	0.005
560.674	0.0063
561.018	0.0026
561.363	0.0006
561.707	0.0008
562.051	0.0014
562.395	0.0004
562.74	-0.0014
563.084	-0.0027
563.428	-0.0033
563.772	0.0003
564.116	0.0001
564.46	0.0006
564.804	0.0001
565.148	0.001
565.492	-0.0001
565.835	-0.0025
566.179	-0.0054
566.523	-0.0022
566.866	-0.0015
567.21	0.001
567.554	-0.0006
567.897	0.0031
568.24	0.0048
568.584	0.0033
568.927	0.0013
569.271	-0.0028
569.614	0.0023
569.957	0.0021
570.3	0.0016
570.643	-0.0005
570.986	-0.0038
571.329	0.0014
571.672	0.0009
572.015	0.0035
572.358	-0.0006
572.701	-0.0005
573.044	-0.0031
573.387	0.0032
573.729	0.0028
574.072	0.0038
574.414	-0.0009
574.757	-0.0024
575.099	-0.0024
575.442	-0.0021
575.784	-0.001
576.127	-0.0002
576.469	0.0008
576.811	0.0033
577.153	0.0019
577.496	0.0003
577.838	-0.0021
578.18	-0.0013
578.522	-0.003
578.864	-0.0016
579.206	-0.0013
579.548	0.0011
579.889	0.0004
580.231	0.0018
580.573	0.0011
580.915	0.0019
581.256	0
581.598	0.0014
581.939	0.0007
582.281	0.0002
582.622	0
582.964	-0.0008
583.305	0.0009
583.646	0.0013
583.988	0.0021
584.329	0.0014
584.67	0.0003
585.011	0
585.352	-0.0011
585.693	-0.001
586.034	0.0006
586.375	0.0014
586.716	-0.0004
587.057	-0.0029
587.398	-0.0027
587.738	-0.003
588.079	-0.0018
588.42	-0.0026
588.76	-0.0016
589.101	-0.0013
589.441	0.0025
589.782	0.0025
590.122	0.0005
590.463	-0.0003
590.803	-0.0012
591.143	-0.001
591.483	-0.003
591.823	-0.0002
592.164	0.0019
592.504	0.003
592.844	0.0005
593.184	-0.0014
593.523	-0.0044
593.863	-0.0024
594.203	-0.0009
594.543	0.0021
594.883	0.0019
595.222	0.0029
595.562	0.0005
595.901	0.0003
596.241	0.0003
596.58	0.0031
596.92	0.0029
597.259	0.0014
597.599	0.0009
597.938	-0.001
598.277	-0.0001
598.616	0.0008
598.955	0.0033
599.295	0.0007
599.634	0.0018
599.973	-0.0021
600.312	-0.0012
600.65	-0.0034
600.989	0.0023
601.328	0.0051
601.667	0.0035
602.005	0.0014
602.344	-0.0008
602.683	0.001
603.021	0.0018
603.36	0.0004
603.698	-0.0017
604.037	-0.0041
604.375	-0.0004
604.713	0.0016
605.052	0.002
605.39	-0.0013
605.728	-0.0029
606.066	-0.0022
606.404	-0.0006
606.742	-0.0014
607.08	-0.0048
607.418	-0.0037
607.756	-0.0024
608.094	0.0025
608.431	0.0011
608.769	-0.0012
609.107	-0.002
609.444	-0.0034
609.782	-0.0011
610.12	0
610.457	0.0022
610.794	0.0034
611.132	0.0045
611.469	0.0021
611.806	0.0013
612.144	-0.0016
612.481	-0.0002
612.818	-0.002
613.155	-0.0038
613.492	-0.0035
613.829	-0.0001
614.166	0.0036
614.503	0.0034
614.84	0.001
615.176	0.0008
615.513	0.0022
615.85	0.004
616.187	0.0067
616.523	0.0054
616.86	0.0042
617.196	-0.0007
617.533	0.0015
617.869	0.0025
618.205	0.0039
618.542	-0.0011
618.878	-0.0034
619.214	-0.002
619.55	0.002
619.886	0.0035
620.222	0.0049
620.558	0.0029
620.894	0.0021
621.23	-0.005
621.566	-0.0029
621.902	-0.0028
622.238	-0.0002
622.573	-0.0026
622.909	-0.0027
623.244	-0.0041
623.58	-0.0041
623.916	-0.0023
624.251	0.0024
624.586	0.0051
624.922	0.0007
625.257	-0.0023
625.592	-0.0054
625.927	-0.0052
626.263	-0.0066
626.598	-0.0076
626.933	-0.0046
627.268	0.0021
627.603	0.0053
627.938	0.0078
628.272	0.0062
628.607	0.0028
628.942	-0.002
629.277	-0.003
629.611	0.0038
629.946	0.0032
630.281	0.0048
630.615	-0.0007
630.949	0.0011
631.284	0
631.618	0.0013
631.953	0.0024
632.287	-0.0014
632.621	-0.0013
632.955	-0.0031
633.289	-0.0014
633.623	-0.0032
633.957	-0.0006
634.291	-0.0009
634.625	0.0006
634.959	0.0009
635.293	0.0029
635.627	0.0008
635.96	0.0004
636.294	0.0015
636.627	-0.0002
636.961	-0.0031
637.294	-0.0003
637.628	0.003
637.961	0.0014
638.295	0.0016
638.628	0.0035
638.961	0.0083
639.294	0.0008
639.628	-0.0004
639.961	0
640.294	0.0038
640.627	0.0017
640.96	0.001
641.293	-0.004
641.625	-0.0005
641.958	0.0035
642.291	0.0097
642.624	0.011
642.956	0.0028
643.289	0.0001
643.621	-0.0011
643.954	0.0001
644.286	0.0001
644.619	-0.004
644.951	-0.0064
645.283	-0.0013
645.616	0.0002
645.948	0
646.28	-0.0009
646.612	-0.0024
646.944	-0.0008
647.276	-0.0038
647.608	-0.0022
647.94	-0.001
648.272	-0
648.603	0.0032
648.935	-0.0024
649.267	-0.0042
649.598	-0.0071
649.93	0.0005
650.261	0.0055
650.593	0.0087
650.924	0.0034
651.256	-0.0005
651.587	0.001
651.918	0.0054
652.25	0.0052
652.581	0.0003
652.912	-0.0027
653.243	-0.0061
653.574	-0.002
653.905	-0.0013
654.236	0.0003
654.567	0.0012
654.897	-0.0003
655.228	0.0042
655.559	0.0002
655.89	0.0037
656.22	0
656.551	0.0028
656.881	0.0058
657.212	0.0066
657.542	0.007
657.872	0.0061
658.203	0.006
658.533	0.0047
658.863	0.0012
659.193	-0.0003
659.523	-0.0033
659.853	-0.0058
660.183	-0.0041
660.513	-0.0021
660.843	0.0011
661.173	0.0033
661.503	0.0006
661.833	-0.001
662.162	-0.0035
662.492	0.0002
662.822	-0.0016
663.151	-0.0004
663.481	-0.0038
663.81	-0.0033
664.139	-0.0065
664.469	-0.0035
664.798	0.0045
665.127	0.01
665.456	0.008
665.785	0.0018
666.114	0.0013
666.443	0.0041
666.772	0.0067
667.101	0.0067
667.43	-0.0001
667.759	0.0013
668.088	-0.0013
668.416	-0.0001
668.745	-0.001
669.074	0.001
669.402	0.002
669.731	0.0016
670.059	-0.0014
670.388	0.0006
670.716	-0.0025
671.044	-0.0001
671.372	0.0027
671.701	0.0017
672.029	-0.0034
672.357	-0.0084
672.685	-0.0051
673.013	-0.0004
673.341	-0.0024
673.669	-0.001
673.996	0.0029
674.324	0.0078
674.652	0.0049
674.98	0.0017
675.307	0.002
675.635	-0.0003
675.962	-0.0024
676.29	-0.008
676.617	-0.0026
676.945	-0.0054
677.272	-0.0074
677.599	-0.0084
677.926	-0.0025
678.253	-0.0024
678.581	-0.0029
678.908	-0.0021
679.235	0.0025
679.561	0.0031
679.888	0.0053
680.215	0.0044
680.542	0.0088
680.869	0.0075
681.195	0.0096
681.522	0.0057
681.849	0.0052
682.175	0.0027
682.502	-0.0051
682.828	-0.0091
683.154	-0.0073
683.481	-0.0022
683.807	-0.0017
684.133	-0.0036
684.459	-0.0003
684.785	0.0006
685.111	0.001
685.437	-0.0011
685.763	-0.0017
686.089	-0.0019
686.415	-0.0023
686.741	-0.0029
687.067	0
687.392	0.0002
687.718	0.0021
688.043	0.0007
688.369	0.0019
688.694	0.0002
689.02	0.0013
689.345	-0.0021
689.67	0.0013
689.996	0.0017
690.321	0.0055
690.646	0.0052
690.971	0.0039
691.296	0.0041
691.621	0.0055
691.946	0.0051
692.271	0.0082
692.596	0.0041
692.921	0.0039
693.245	-0.005
693.57	-0.0033
693.895	-0.0052
694.219	-0.0034
694.544	-0.0036
694.868	-0.0032
695.193	-0.0031
695.517	-0.0026
695.841	-0.0033
696.166	0.0005
696.49	-0.0023
696.814	0.0002
697.138	-0.0014
697.462	0.0003
697.786	0
698.11	0.0033
698.434	0.0023
698.758	0.0029
699.081	0.0011
699.405	-0.0001
699.729	0.0025
700.052	0.0026
700.376	0.0042
700.7	0.0058
701.023	0.004
701.346	0.0069
701.67	0.0017
701.993	0.0045
702.316	0.0056
702.639	0.0041
702.963	0.0053
703.286	0.0025
703.609	0.0081
703.932	0.0017
704.255	0.0035
704.578	-0.0036
704.9	-0.0012
705.223	-0.0069
705.546	-0.0048
705.868	-0.006
706.191	-0.0002
706.514	0.0005
706.836	0.0053
707.159	0.0011
707.481	0.0005
707.803	0.001
708.126	-0.0024
708.448	-0.0019
708.77	-0.007
709.092	-0.0045
709.414	-0.0018
709.736	-0.0022
710.058	0.004
710.38	0.0017
710.702	0.0038
711.024	-0.0028
711.345	0.0002
711.667	0.0007
711.989	0.0008
712.31	-0.0015
712.632	-0.0014
712.953	-0.0033
713.275	-0.0017
713.596	-0.0058
713.917	-0.0032
714.239	-0.0032
714.56	0.0022
714.881	0.0052
715.202	0.0051
715.523	0.0015
715.844	0.0003
716.165	-0.0008
716.486	0.0016
716.807	-0.0006
717.128	0.0007
717.448	-0.0004
717.769	0.0043
718.09	0.0022
718.41	0.0061
718.731	0.0066
719.051	0.0041
719.372	-0.0016
719.692	-0.0092
720.012	-0.0109
720.332	-0.011
720.653	-0.0095
720.973	-0.0063
721.293	-0.0076
721.613	-0.0034
721.933	-0.0024
722.253	0.006
722.573	0.0015
722.892	0.0021
723.212	-0.0042
723.532	-0.0024
723.851	-0.0041
724.171	-0.006
724.491	-0.0073
724.81	-0.0058
725.129	-0.006
725.449	-0.007
725.768	-0.0066
726.087	-0.0027
726.407	0.0005
726.726	0.0007
727.045	0.0052
727.364	0.0004
727.683	0.0039
728.002	0.0026
728.321	0.0043
728.64	0.0003
728.958	-0.0054
729.277	-0.0008
729.596	-0.0004
729.914	0.0057
730.233	0.0055
730.551	0.0034
730.87	0
731.188	0.0023
731.507	0.0064
731.825	0.0072
732.143	0.0023
732.461	0.0021
732.779	0.0018
733.097	0.0033
733.415	0.0013
733.733	0.0014
734.051	0.0018
734.369	0.0018
734.687	-0.0003
735.005	0.0001
735.322	-0.0053
735.64	-0.0075
735.957	-0.008
736.275	-0.0041
736.592	-0.0005
736.91	-0.0011
737.227	-0.0023
737.544	-0.0035
737.862	-0.0063
738.179	-0.0026
738.496	-0.0022
738.813	-0.0017
739.13	-0.003
739.447	-0.0014
739.764	0.0017
740.081	0.0003
740.398	-0.0064
740.714	-0.0073
741.031	-0.0095
741.348	-0.0049
741.664	-0.0022
741.981	-0.0017
742.297	-0.0027
742.614	-0.0041
742.93	-0.0004
743.246	0.0014
743.563	-0.0006
743.879	0
744.195	-0.0014
744.511	0.0003
744.827	-0.0002
745.143	0.0019
745.459	0.0052
745.775	0.0005
746.091	-0.0008
746.406	-0.0065
746.722	-0.0025
747.038	0.0014
747.353	-0.0008
747.669	0.0013
747.984	-0
748.3	0.0085
748.615	0.0097
748.93	0.0072
749.246	0.0063
749.561	-0.0013
749.876	0.004
750.191	0.0021
750.506	0.008
750.821	0.0008
751.136	0.0004
751.451	0.0018
751.766	-0.0021
752.08	-0.0099
752.395	-0.0153
752.71	-0.0082
753.024	-0.0054
753.339	-0.0056
753.653	-0.0051
753.968	0.0012
754.282	0.0054
754.596	0.0068
754.911	-0.0046
755.225	-0.0049
755.539	-0.0054
755.853	0.0023
756.167	0.002
756.481	0.0023
756.795	0.0017
757.109	-0.0008
757.423	-0.0071
757.736	-0.0036
758.05	0.0003
758.364	0.0025
758.677	0.0012
758.991	-0.0005
759.304	-0.0006
759.618	-0.0007
759.931	0.0024
760.244	0.0053
760.558	0.0043
760.871	0.0011
761.184	-0.0012
761.497	-0.0062
761.81	-0.0068
762.123	-0.0083
762.436	-0.0041
762.749	0.0005
763.062	0.0035
763.374	0.0073
763.687	0.0064
764	0.0059
764.312	0.0036
764.625	-0.0009
764.937	-0.0014
765.25	-0.0033
765.562	-0.0009
765.874	-0.0012
766.186	-0.005
766.499	-0.0093
766.811	-0.01
767.123	-0.0056
767.435	-0.0028
767.747	0.0002
768.059	-0.0018
768.37	-0.0006
768.682	-0.0042
768.994	-0.0017
769.306	-0.0002
769.617	0.0044
769.929	0.003
770.24	0.0034
770.552	0.0013
770.863	-0.0003
771.174	-0.0014
771.486	0.001
771.797	0.0045
772.108	0.0009
772.419	-0.0067
772.73	-0.0091
773.041	-0.0057
773.352	-0.0007
773.663	0.0015
773.974	0.0026
774.285	0.0002
774.595	0.0019
774.906	-0.0039
775.217	-0.0003
775.527	-0.0067
775.838	-0.0035
776.148	-0.0042
776.458	0.0022
776.769	0.003
777.079	-0.0041
777.389	-0.0111
777.699	-0.0062
778.009	-0.0028
778.319	0.0055
778.629	0.0014
778.939	0.0038
779.249	0.0067
779.559	0.0014
779.869	0.0023
780.178	-0.0006
780.488	-0.0022
780.798	-0.0069
781.107	-0.0158
781.417	-0.0068
781.726	-0.0018
782.035	0.0077
782.345	0.0042
782.654	-0.0014
782.963	-0.0055
783.272	-0.0039
783.581	-0.001
783.89	-0.0038
784.199	-0.0013
784.508	-0.003
784.817	0.0077
785.126	0.0031
785.434	0.001
785.743	-0.0069
786.052	-0.0075
786.36	-0.005
786.669	-0.0075
786.977	-0.0083
787.285	-0.004
787.594	0.002
787.902	0.0055
788.21	0.0013
788.518	-0.0029
788.826	-0.0007
789.135	-0.0007
789.442	-0.0054
789.75	-0.012
790.058	-0.0083
790.366	-0.0103
790.674	-0.0043
790.981	-0.0072
791.289	-0.0029
791.597	-0.004
791.904	0.0023
792.212	0.0067
792.519	0.0081
792.826	0.0063
793.134	0.0021
793.441	-0.0001
793.748	-0.005
794.055	-0.0006
794.362	-0.0009
794.669	-0.0025
794.976	-0.0014
795.283	-0.0034
795.59	0.0038
795.897	0
796.203	0.0007
796.51	0.0022
796.817	-0.0009
797.123	0.0016
797.43	-0.005
797.736	0.0005
798.042	-0.0013
798.349	0.0048
798.655	0.0059
798.961	0.0074
799.267	0.0063
799.573	0.0032
799.879	-0.0008
800.185	-0.0024
800.491	-0.0038
800.797	0.0014
801.103	0.0049
801.408	0.0023
801.714	-0.0049
802.02	-0.0114
802.325	-0.0062
802.631	-0.0023
802.936	0.0026
803.242	0.0047
803.547	0.0069
803.852	0.0108
804.157	0.0086
804.462	0.0039
804.768	-0.0078
805.073	-0.0205
805.378	-0.019
805.682	-0.0131
805.987	-0.0067
806.292	-0.0041
806.597	-0.0005
806.902	0.0056
807.206	-0.0002
807.511	-0.0023
807.815	-0.0092
808.12	0.0008
808.424	0.0001
808.728	0.0017
809.033	-0.0076
809.337	-0.0014
809.641	0.003
809.945	0.0075
810.249	0.0038
810.553	0.0065
810.857	0.0079
811.161	0.0043
811.465	0.0022
811.768	0.0061
812.072	0.0054
812.376	0.0065
812.679	0.0044
812.983	0.0041
813.286	-0.0037
813.59	-0.0106
813.893	-0.0094
814.196	0.0004
814.499	-0.001
814.803	-0.0026
815.106	-0.0081
815.409	-0.0086
815.712	-0.0022
816.015	0.0023
816.318	0.0047
816.62	-0.0055
816.923	-0.0072
817.226	0.0052
817.528	0.0061
817.831	0.0077
818.133	-0.0057
818.436	-0.0008
818.738	-0.0013
819.041	0.0065
819.343	0.0101
819.645	0.0042
819.947	0.0026
820.249	-0.0028
820.551	0.0008
820.853	0.0002
821.155	-0.0012
821.457	-0.0033
821.759	-0.0065
822.061	-0.006
822.362	-0.0048
822.664	0.0032
822.966	0.0094
823.267	0.0077
823.569	-0.003
823.87	-0.0109
824.171	-0.011
824.473	-0.0052
824.774	0.0026
825.075	-0.003
825.376	-0.0077
825.677	-0.0144
825.978	-0.0111
826.279	-0.0011
826.58	0.0109
826.881	0.009
827.181	0.0035
827.482	-0.0011
827.783	-0.0003
828.083	-0.0046
828.384	-0.0077
828.684	-0.0044
828.985	0.0035
829.285	0.0021
829.585	0.0032
829.885	0.0011
830.185	0.0099
830.486	0.01
830.786	0.0085
831.086	0.0012
831.385	-0.0007
831.685	-0.0052
831.985	-0.0149
832.285	-0.0132
832.585	-0.0043
832.884	-0.0039
833.184	-0.0066
833.483	-0.0104
833.783	0.003
834.082	0.0038
834.381	0.0003
834.681	-0.0125
834.98	-0.0136
835.279	-0.0113
835.578	0.0005
835.877	-0
836.176	0.0034
836.475	-0.0017
836.774	0.002
837.072	0.0044
837.371	0.0052
837.67	0.0021
837.968	0.0003
838.267	0.0101
838.565	0.0141
838.864	0.0191
839.162	0.0038
839.46	0.0003
839.759	0.0013
840.057	0.0111
840.355	0.0205
840.653	0.0122
840.951	0.0128
841.249	0.0155
841.547	0.0074
841.845	0.0011
842.142	-0.0132
842.44	-0.0172
842.738	-0.0081
843.035	-0.0133
843.333	-0
843.63	-0.0021
843.928	0.0067
844.225	-0.0052
844.522	-0.0099
844.82	0.0002
845.117	0.0169
845.414	0.0152
845.711	0.0106
846.008	0.0135
846.305	0.013
846.602	0.0021
846.898	-0.0048
847.195	-0.0057
847.492	-0.0026
847.788	-0.0001
848.085	0.0024
848.382	0.0082
848.678	-0.0044
848.974	-0.0018
849.271	-0.0027
849.567	0.0027
849.863	0.0076
850.159	0.0002
850.455	-0.0081
850.751	-0.0112
851.047	-0.0205
851.343	-0.0054
851.639	-0.0134
851.935	-0.0105
852.23	-0.0157
852.526	-0.0139
852.822	0.009
853.117	0.0205
853.413	0.0294
853.708	0.0261
854.003	0.0058
854.299	-0.0017
854.594	-0.0227
854.889	-0.0114
855.184	-0.0014
855.479	-0.0082
855.774	-0.0056
856.069	-0.019
856.364	-0.0063
856.659	-0.0005
856.954	0.0173
857.248	0.0283
857.543	0.0101
857.837	-0.0257
858.132	-0.0253
858.426	-0.0168
858.721	0.0013
859.015	-0.011
859.309	-0.0095
859.604	0.0057
859.898	0.0296
860.192	0.0299
860.486	0.0228
860.78	0.0204
861.074	0.0365
861.367	0.0297
861.661	0.0198
861.955	0.0049
862.248	-0.0024
862.542	-0.0014
862.836	0.0037
863.129	0.0227
863.422	0.0145
863.716	0.0033
864.009	0.0166
864.302	0.0065
864.595	0.0215
864.889	0.0136
865.182	0.0285
865.475	0.0159
865.767	0.0007
866.06	-0.0143
866.353	-0.004
866.646	0.0143
866.938	0.0415
867.231	0.045
867.524	0.0269
867.816	-0.0088
868.109	-0.0225
868.401	-0.0298
868.693	0.0144
868.985	0.0447
869.278	0.0684
869.57	0.0474
869.862	0.0126
870.154	-0.0019
870.446	0.0046
870.738	0.0127
871.029	0.0297
871.321	0.0356
871.613	0.0286
871.904	0.0259
872.196	0.0057
872.487	-0.0182
872.779	-0.0289
873.07	-0.0144
873.362	0.0062
873.653	0.0115
873.944	0.0114
874.235	0.0212
874.526	0.0119
874.817	0.0114
875.108	0.0042
875.399	0.0214
875.69	0.0061
875.981	-0.015
876.271	-0.0308
876.562	-0.0401
876.853	-0.0085
877.143	-0.0292
877.434	-0.023
877.724	-0.0585
878.014	-0.0257
878.305	-0.0066
878.595	0.0163
878.885	-0.0179
879.175	-0.0104
879.465	0.0205
879.755	0.0407
880.045	0.0386
880.335	0.0201
880.624	0.0291
880.914	0.0291
