Data from DIblank_071817_1b_Absorbance_19-43-39-856.txt Node
Date: Tue Jul 18 19:43:39 MDT 2017
User: Tank Lab
Spectrometer: FLMS01220
Trigger mode: 0
Integration Time (sec): 1.000000E-1
Scans to average: 10
Electric dark correction enabled: true
Nonlinearity correction enabled: false
Boxcar width: 1
XAxis mode: Wavelengths
Number of Pixels in Spectrum: 2048
>>>>>Begin Spectral Data<<<<<
179.47	-0
179.856	-0
180.241	-0
180.626	-0
181.011	0.8789
181.396	0.5479
181.781	-0
182.166	-0
182.551	0.0559
182.936	0.1113
183.321	-0.4369
183.706	-0
184.091	0.4433
184.476	0.3113
184.86	0.0784
185.245	-0
185.63	-0
186.015	-0.4749
186.399	-0.4938
186.784	-0
187.169	-0
187.553	0.3319
187.938	0.0165
188.322	0.0393
188.707	0.0342
189.091	0.0256
189.475	0.0133
189.86	0.0206
190.244	0.0284
190.629	0.0209
191.013	0.0168
191.397	0.0035
191.781	0.0092
192.165	0.0175
192.55	0.0195
192.934	0.0362
193.318	0.0314
193.702	0.0272
194.086	0.0083
194.47	0.007
194.854	0.0121
195.238	0.013
195.622	0.0115
196.006	0.0028
196.389	0.0031
196.773	0.0002
197.157	0.0036
197.541	0.0023
197.924	-0.0012
198.308	-0.006
198.692	-0.0064
199.075	-0.0024
199.459	0.0046
199.843	0.0058
200.226	0.0081
200.61	0.0077
200.993	0.0047
201.376	0.0018
201.76	-0.0011
202.143	0.0033
202.527	0.0044
202.91	0.0069
203.293	0.0045
203.676	0.0032
204.059	0.0024
204.443	0.0049
204.826	0.0054
205.209	0.0026
205.592	0.0008
205.975	0.0011
206.358	-0.0005
206.741	0.0005
207.124	-0.0005
207.507	0.005
207.89	0.0044
208.273	0.0069
208.655	0.0039
209.038	0.0047
209.421	0.0037
209.804	0.0071
210.186	0.0047
210.569	0.0049
210.951	0.0012
211.334	0.0036
211.717	0.0027
212.099	0.0017
212.482	-0.0017
212.864	-0.0007
213.246	0.001
213.629	0.0042
214.011	0.0043
214.393	0.0038
214.776	0.0021
215.158	0.0025
215.54	0.0018
215.922	0.0023
216.305	0.002
216.687	0.0022
217.069	0.0036
217.451	0.0033
217.833	0.0052
218.215	0.0055
218.597	0.0037
218.979	0.0042
219.361	0.0045
219.742	0.0053
220.124	0.0048
220.506	0.0037
220.888	0.0044
221.27	0.0027
221.651	0.0022
222.033	0.0027
222.415	0.0024
222.796	0.0008
223.178	0.0002
223.559	0.0003
223.941	0.0025
224.322	0.0002
224.704	0.002
225.085	0.0011
225.466	0.0026
225.848	0.0012
226.229	0.0023
226.61	0.0043
226.992	0.0057
227.373	0.0045
227.754	0.0037
228.135	0.0036
228.516	0.0045
228.897	0.0039
229.278	0.0041
229.659	0.004
230.04	0.0033
230.421	0.0005
230.802	-0.0009
231.183	0
231.564	0.0012
231.944	0.0017
232.325	0.0006
232.706	0.0005
233.087	0.0003
233.467	0.0018
233.848	0.0015
234.229	0.0011
234.609	-0.0007
234.99	-0.0002
235.37	0.0006
235.751	0.0021
236.131	0.0032
236.511	0.0028
236.892	0.0039
237.272	0.0022
237.652	0.0012
238.033	-0.0012
238.413	-0.0009
238.793	0
239.173	0.0005
239.553	0.0014
239.933	0.0016
240.313	0.0018
240.694	0.0007
241.074	0.0005
241.453	-0.0001
241.833	-0.0004
242.213	0.0001
242.593	0.0017
242.973	0.0022
243.353	0.002
243.732	0.0008
244.112	0.0004
244.492	-0.0003
244.872	0.0007
245.251	0.0017
245.631	0.0024
246.01	0.0014
246.39	0.0003
246.769	-0.0001
247.149	-0.0004
247.528	-0.0002
247.908	0
248.287	0.0014
248.666	0.002
249.045	0.0011
249.425	-0.0001
249.804	-0.0007
250.183	0.0018
250.562	0.0015
250.941	0.001
251.32	-0.0006
251.699	0.0004
252.078	0.0012
252.457	0.0002
252.836	-0.0004
253.215	-0.0002
253.594	0.0013
253.973	0.0013
254.352	0.0011
254.731	0.0023
255.109	0.0014
255.488	0.0013
255.867	-0.0011
256.245	0.0001
256.624	-0.0012
257.002	0.0004
257.381	-0.0012
257.759	0.0012
258.138	-0.0005
258.516	0.0012
258.895	0.0011
259.273	0.0013
259.651	0.0001
260.03	0.0003
260.408	0.0013
260.786	0.0026
261.164	0.002
261.542	0.0013
261.921	0.0013
262.299	-0.0001
262.677	-0.0006
263.055	-0.0013
263.433	-0.0007
263.811	0.001
264.188	-0.0006
264.566	-0.0012
264.944	-0.0025
265.322	0.0001
265.7	0.0008
266.077	0.0013
266.455	-0.001
266.833	-0.001
267.21	-0.0012
267.588	-0.0001
267.966	-0.0017
268.343	-0.0017
268.721	-0.0005
269.098	0.0009
269.475	0.0008
269.853	0.0007
270.23	0.0006
270.607	0.0013
270.985	0.0009
271.362	0.0001
271.739	-0.0004
272.116	-0.0016
272.494	-0.0002
272.871	-0.0004
273.248	0.0008
273.625	-0.0014
274.002	-0.0019
274.379	-0.0016
274.756	0.0007
275.132	-0
275.509	0.0001
275.886	-0.0005
276.263	0.0019
276.64	0.0009
277.016	0.0004
277.393	-0.0007
277.77	-0.0005
278.146	-0.0004
278.523	-0.0015
278.899	-0.0013
279.276	-0.0008
279.652	0.0009
280.029	0.0008
280.405	0.0016
280.782	0.0011
281.158	0.0011
281.534	0.0004
281.91	0.0009
282.287	0.001
282.663	0.0028
283.039	0.0033
283.415	0.0024
283.791	0
284.167	0
284.543	0.0014
284.919	0.0013
285.295	-0.0001
285.671	-0.0005
286.047	0.0008
286.423	0.0019
286.799	0.0021
287.174	0.0018
287.55	0
287.926	-0.0003
288.301	-0.0001
288.677	0.0017
289.053	0.0018
289.428	0.001
289.804	0.0003
290.179	0.0006
290.555	0.0004
290.93	0.0011
291.305	-0.0002
291.681	-0.0002
292.056	0.0002
292.431	0.0012
292.806	0.0036
293.182	0.003
293.557	0.0041
293.932	0.0033
294.307	0.0011
294.682	-0.0005
295.057	-0.0018
295.432	-0.0005
295.807	0.0002
296.182	0.0006
296.557	0.0005
296.932	-0.0003
297.306	-0.001
297.681	-0.0012
298.056	0.0013
298.43	0.0018
298.805	0.0021
299.18	-0.0009
299.554	-0.0013
299.929	-0.001
300.303	0.0017
300.678	0.0024
301.052	0.0027
301.427	0.0006
301.801	0.0008
302.175	0.0007
302.55	0.0003
302.924	-0.0003
303.298	-0.0001
303.672	0.0009
304.046	0.0013
304.421	-0.0001
304.795	-0.0012
305.169	-0.0018
305.543	-0.002
305.917	-0.0023
306.291	-0.0018
306.664	-0.0004
307.038	0
307.412	-0.0004
307.786	0.0002
308.16	0.0016
308.533	0.0016
308.907	0.0008
309.281	-0.0001
309.654	0.0015
310.028	0.0023
310.401	0.002
310.775	0.0013
311.148	0.0014
311.522	0.0013
311.895	0.0014
312.268	-0.0001
312.642	0.0007
313.015	-0.0011
313.388	-0.0018
313.761	-0.0014
314.135	-0.0014
314.508	-0.0011
314.881	-0.0019
315.254	-0.0008
315.627	0.0007
316	0.0022
316.373	0.0028
316.746	0.0015
317.118	-0.0009
317.491	-0.0008
317.864	0.0005
318.237	0.001
318.61	-0.0002
318.982	-0.0006
319.355	-0.0003
319.727	0.0001
320.1	0.0006
320.473	0.0021
320.845	0.0023
321.218	0.0026
321.59	0.0016
321.962	0.0011
322.335	0.0009
322.707	0.0002
323.079	0.0006
323.452	-0.0009
323.824	0.0015
324.196	0.0006
324.568	0.0012
324.94	-0.0004
325.312	0.0012
325.684	0.0027
326.056	0.0018
326.428	0.0012
326.8	0.0003
327.172	0.0025
327.544	0.0017
327.915	0.0031
328.287	0.0014
328.659	0.0029
329.031	0.0012
329.402	0.0012
329.774	-0.0005
330.145	-0.0006
330.517	-0.0003
330.888	0.001
331.26	0.0004
331.631	0.0007
332.003	0.0001
332.374	0.0019
332.745	0.0006
333.117	0.0002
333.488	0.0007
333.859	0.0016
334.23	0.0002
334.601	-0.0015
334.972	-0.0022
335.343	0.0002
335.714	-0.0003
336.085	-0
336.456	0.0005
336.827	0.0002
337.198	0.0001
337.569	-0.0007
337.94	0.0008
338.31	0.0008
338.681	-0.0006
339.052	-0.0024
339.422	-0.0021
339.793	0.0008
340.164	0.0032
340.534	0.0031
340.905	0.0016
341.275	0.0008
341.645	0.0026
342.016	0.0013
342.386	0.0024
342.756	0.0014
343.127	0.002
343.497	0.0009
343.867	0.0011
344.237	-0.0006
344.607	-0.0015
344.977	-0.0013
345.347	-0.0002
345.717	0.0002
346.087	-0.0008
346.457	0.0006
346.827	-0.0006
347.197	-0.0024
347.567	-0.0033
347.936	-0.0007
348.306	0.0013
348.676	0.0012
349.046	0.0006
349.415	0.0002
349.785	0.0006
350.154	0.0006
350.524	0.0008
350.893	0.0003
351.263	-0.0011
351.632	-0.0024
352.001	-0.0017
352.371	-0.0009
352.74	-0.0007
353.109	-0.0013
353.478	-0.0003
353.847	0.0008
354.217	0.0017
354.586	-0.001
354.955	-0.0006
355.324	-0.0013
355.693	0.0003
356.062	-0.0008
356.43	-0.0012
356.799	0.0001
357.168	0.0009
357.537	0.0015
357.906	-0.0006
358.274	0.0007
358.643	0.0005
359.011	0.0013
359.38	-0.0004
359.749	-0.0004
360.117	-0.0008
360.486	-0.0004
360.854	-0
361.222	-0.0005
361.591	0
361.959	-0.0006
362.327	0.0002
362.695	-0.001
363.064	-0.0002
363.432	-0.0019
363.8	-0.0006
364.168	-0.0006
364.536	0.0002
364.904	-0.001
365.272	-0.0017
365.64	-0.0003
366.008	0.0002
366.376	0.0006
366.743	0.0007
367.111	0.0013
367.479	0.0014
367.847	0.0009
368.214	0.0009
368.582	0.0002
368.949	0.0016
369.317	0.0019
369.684	0.0038
370.052	0.003
370.419	0.0041
370.787	0.0041
371.154	0.0013
371.521	0.0008
371.889	-0.0008
372.256	0.0006
372.623	-0.0018
372.99	-0.0044
373.357	-0.0042
373.724	-0.003
374.091	-0.0028
374.458	-0.0027
374.825	-0.0049
375.192	-0.0035
375.559	-0.0023
375.926	0.0005
376.293	0.0034
376.659	0.0015
377.026	0.0018
377.393	0.0004
377.759	-0.0008
378.126	-0.0011
378.492	-0.001
378.859	-0.0007
379.225	-0.0032
379.592	-0.0038
379.958	-0.0028
380.325	-0.0014
380.691	-0.0011
381.057	-0.0006
381.423	-0.0007
381.79	-0.0003
382.156	0.0005
382.522	0.0005
382.888	-0.0008
383.254	-0.0021
383.62	-0.001
383.986	0.0019
384.352	0.003
384.718	0.0038
385.084	0.0049
385.449	0.0034
385.815	0.0019
386.181	0.0004
386.547	0.001
386.912	-0.0011
387.278	-0.003
387.643	-0.0024
388.009	-0.0014
388.374	0.0007
388.74	0.0016
389.105	0.002
389.471	0.0006
389.836	-0.0013
390.201	-0.0002
390.566	0.001
390.932	0.002
391.297	0.0023
391.662	-0.0004
392.027	-0.0027
392.392	-0.0066
392.757	-0.0059
393.122	-0.0056
393.487	-0.0015
393.852	0.001
394.217	0.0026
394.582	0.0029
394.946	0.0025
395.311	0.0027
395.676	0.0021
396.04	-0.0025
396.405	-0.0026
396.77	-0.0024
397.134	0.0023
397.499	0.0018
397.863	-0.0011
398.227	-0.0024
398.592	-0.0001
398.956	0.0019
399.32	0.0029
399.685	0.0019
400.049	0.0045
400.413	0.0051
400.777	0.0023
401.141	0.0009
401.505	0.0005
401.869	0.0014
402.233	-0.0022
402.597	-0.0029
402.961	-0.003
403.325	-0
403.689	0.0003
404.053	0.0013
404.416	-0.0007
404.78	-0.0014
405.144	-0.0009
405.507	0.0014
405.871	-0.0004
406.234	0.0011
406.598	-0.0009
406.961	0.0007
407.325	-0.0021
407.688	-0.0022
408.051	-0.0009
408.415	0.0004
408.778	0.0018
409.141	0.001
409.504	0.0023
409.867	0.0018
410.23	0.0007
410.593	-0.0034
410.956	-0.0034
411.319	-0.002
411.682	0.0005
412.045	0
412.408	-0.0018
412.771	-0.0011
413.134	0.0003
413.496	0.0016
413.859	-0
414.222	-0.0022
414.584	-0.0016
414.947	-0.0018
415.309	0.0005
415.672	0.0009
416.034	0.0026
416.396	0.0024
416.759	0.0019
417.121	0.002
417.483	0.0022
417.846	0.0029
418.208	0.0012
418.57	0.0003
418.932	-0.001
419.294	-0
419.656	-0.0015
420.018	-0.0003
420.38	0.0005
420.742	0.0008
421.104	0.0001
421.466	-0.0025
421.827	0.0004
422.189	-0.0011
422.551	0.0009
422.912	0.0004
423.274	0.0035
423.636	0.0036
423.997	0.0036
424.359	0.0036
424.72	0.0042
425.081	0.0033
425.443	-0.0018
425.804	-0.0052
426.165	-0.0054
426.527	-0.0051
426.888	-0.0019
427.249	0.0005
427.61	0.0052
427.971	0.0021
428.332	0.0012
428.693	-0.002
429.054	-0.0011
429.415	-0.0018
429.776	-0.0006
430.137	-0.0006
430.498	-0.003
430.858	-0.0021
431.219	0.0007
431.58	0.0016
431.94	0.0018
432.301	0.0008
432.661	0.0005
433.022	-0.0004
433.382	0.0013
433.743	-0.0005
434.103	-0.0003
434.463	-0.005
434.824	-0.0034
435.184	-0.0027
435.544	-0.0011
435.904	-0.0007
436.264	-0.0021
436.624	-0.0012
436.985	-0.0001
437.345	0.0008
437.704	0.0008
438.064	0.0023
438.424	-0.0008
438.784	-0.0001
439.144	0.002
439.504	0.0027
439.863	0.0005
440.223	-0.005
440.583	-0.0043
440.942	-0.0011
441.302	0.0002
441.661	0.0017
442.021	-0.0023
442.38	-0.0014
442.739	-0.0026
443.099	-0.0016
443.458	-0.0035
443.817	-0.0027
444.176	0.0007
444.536	0.0024
444.895	0.0023
445.254	0.0015
445.613	0.0005
445.972	-0.0006
446.331	-0.0037
446.69	-0.0043
447.049	-0.0032
447.407	-0.0022
447.766	0.0003
448.125	-0.0004
448.484	-0.0001
448.842	0.0009
449.201	0.0012
449.559	0.0016
449.918	-0.0023
450.276	-0.0012
450.635	-0.0019
450.993	-0.0022
451.352	-0.0025
451.71	-0.0031
452.068	-0.0009
452.426	-0.0012
452.785	0.0005
453.143	0.0002
453.501	0.0002
453.859	-0.0009
454.217	-0.0008
454.575	-0.0027
454.933	0.0009
455.291	0.0017
455.649	0.0019
456.006	-0.0017
456.364	0.0001
456.722	-0.0001
457.079	0.0024
457.437	0.0007
457.795	0.0025
458.152	0.0014
458.51	0.0002
458.867	-0.0005
459.225	0.0004
459.582	-0.0003
459.939	-0.0019
460.297	-0.003
460.654	-0.0013
461.011	0.0004
461.368	0.0011
461.725	0.0009
462.082	0.0008
462.44	0.0025
462.797	0.0015
463.153	0.001
463.51	-0.0025
463.867	0.0002
464.224	-0.0017
464.581	-0.0025
464.938	-0.0051
465.294	-0.0013
465.651	-0.0003
466.008	-0.0023
466.364	-0.0041
466.721	-0.0018
467.077	0.0015
467.434	0.0021
467.79	0.0006
468.146	-0.0008
468.503	0.0032
468.859	0.0017
469.215	0.0009
469.571	-0.0033
469.927	-0.0023
470.284	-0.0025
470.64	0.0024
470.996	0.0064
471.352	0.0099
471.707	0.0046
472.063	0.0002
472.419	-0.0002
472.775	-0.0009
473.131	0.004
473.486	0.0026
473.842	0.0034
474.198	-0
474.553	0.0004
474.909	0.0018
475.264	0.0022
475.62	0.0029
475.975	0.0018
476.331	0.0004
476.686	0.0003
477.041	0.0006
477.396	0.0056
477.752	0.0041
478.107	0.002
478.462	-0.001
478.817	-0.001
479.172	0.0031
479.527	0.0013
479.882	0.0007
480.237	-0.0022
480.591	-0.0016
480.946	-0.0021
481.301	-0.0001
481.656	-0.003
482.01	-0.0019
482.365	-0.0056
482.72	-0.002
483.074	-0.0023
483.429	0
483.783	-0.0021
484.137	0.0002
484.492	0.0006
484.846	0.0005
485.2	-0.0027
485.555	-0.0045
485.909	-0.0026
486.263	-0.0002
486.617	-0.0004
486.971	-0.0002
487.325	-0.0001
487.679	0.0042
488.033	0.0011
488.387	0.0055
488.741	0.0025
489.094	0.0005
489.448	-0.0051
489.802	-0.0001
490.156	0.0037
490.509	0.0014
490.863	-0.0048
491.216	-0.0031
491.57	-0.0006
491.923	0.0021
492.277	0.0012
492.63	-0.001
492.983	-0.0024
493.337	-0.0026
493.69	0.0007
494.043	0.0002
494.396	-0.0003
494.749	-0.0014
495.102	-0.0011
495.455	-0.0004
495.808	-0.0018
496.161	0.0018
496.514	0.0021
496.867	0.0042
497.22	0.0008
497.572	0
497.925	0.0001
498.278	0.0003
498.63	0.0044
498.983	0.0044
499.335	0.0044
499.688	-0.0029
500.04	-0.0049
500.393	-0.0059
500.745	-0.0024
501.097	-0.0002
501.449	-0.0012
501.802	-0.0023
502.154	-0.003
502.506	-0.0037
502.858	-0.0031
503.21	-0.0037
503.562	-0.0004
503.914	0.004
504.266	0.0058
504.618	0.0031
504.969	-0.0004
505.321	-0.0049
505.673	-0.0022
506.025	-0.0018
506.376	0.0015
506.728	-0.0024
507.079	-0.0029
507.431	-0.0037
507.782	-0.0004
508.134	-0.0004
508.485	0.0003
508.836	-0.0004
509.188	0.0007
509.539	0.0023
509.89	-0.0006
510.241	-0.0034
510.592	-0.0033
510.943	-0.0016
511.294	0.0002
511.645	-0.005
511.996	-0.0029
512.347	-0.0019
512.698	0.0014
513.049	0.0008
513.399	0.0002
513.75	-0
514.101	0.0013
514.451	0.0018
514.802	0.0013
515.152	-0.0007
515.503	-0.0026
515.853	-0.0031
516.203	-0.0065
516.554	-0.0056
516.904	-0.0043
517.254	-0.0004
517.604	0.0001
517.955	-0.0024
518.305	0.0012
518.655	0.0009
519.005	0.0034
519.355	0.002
519.705	0.002
520.055	0.0017
520.404	-0.001
520.754	-0.0004
521.104	0.0009
521.454	0.0042
521.803	0.004
522.153	-0.0009
522.502	-0.005
522.852	-0.0072
523.201	-0.0032
523.551	-0.0026
523.9	-0.0004
524.249	0.0009
524.599	0.0009
524.948	0.0008
525.297	-0.0012
525.646	-0.0016
525.995	-0.0036
526.344	-0.004
526.694	-0.0025
527.042	-0.0016
527.391	-0.0026
527.74	-0.0017
528.089	-0.0005
528.438	0.004
528.787	0.003
529.135	0.0018
529.484	0.0006
529.833	0.0009
530.181	0.0009
530.53	-0.0023
530.878	-0.0038
531.227	-0.0025
531.575	-0
531.923	-0.0039
532.271	-0.0046
532.62	-0.0063
532.968	-0.0027
533.316	-0.0019
533.664	0.0025
534.012	0.0037
534.36	0.0032
534.708	-0.0014
535.056	-0.0008
535.404	-0.0057
535.752	-0.0045
536.1	-0.0057
536.447	-0.0031
536.795	-0.0037
537.143	-0.0026
537.49	-0.0021
537.838	-0.0044
538.185	-0.0038
538.533	-0.002
538.88	0.0018
539.228	-0.0002
539.575	-0.0005
539.922	-0.0007
540.269	0.0029
540.617	0.0026
540.964	-0.0004
541.311	-0.0031
541.658	-0.002
542.005	0.0005
542.352	0.0004
542.699	-0.0018
543.045	-0.0047
543.392	-0.0042
543.739	-0.0057
544.086	-0.0031
544.432	-0.0063
544.779	-0.0028
545.126	-0.0032
545.472	-0.0024
545.819	-0.0035
546.165	-0.004
546.512	-0.0006
546.858	0.0008
547.204	0.0009
547.55	-0.0014
547.897	-0.0014
548.243	-0.0033
548.589	0.0031
548.935	0.0016
549.281	0.0024
549.627	-0.0054
549.973	-0.0042
550.319	-0.0027
550.665	-0
551.01	-0.0036
551.356	-0.0075
551.702	-0.0093
552.048	-0.0107
552.393	-0.0055
552.739	-0.0034
553.084	0.0014
553.43	-0.0026
553.775	-0.0037
554.12	-0.0042
554.466	0.002
554.811	0.0002
555.156	0.0012
555.502	0.0015
555.847	0.0027
556.192	0.0005
556.537	-0.0026
556.882	-0.0025
557.227	-0.0027
557.572	-0.0002
557.917	0.0025
558.261	-0.0031
558.606	-0.0083
558.951	-0.0101
559.295	-0.0063
559.64	-0.0014
559.985	-0.0015
560.329	0.0013
560.674	0.0003
561.018	-0.0017
561.363	-0.005
561.707	-0.007
562.051	-0.0052
562.395	0.0031
562.74	0.0043
563.084	0.0035
563.428	-0.0002
563.772	-0.0009
564.116	-0.0031
564.46	-0.002
564.804	0.0023
565.148	-0.001
565.492	-0.0009
565.835	-0.003
566.179	0.0028
566.523	-0.001
566.866	-0.0026
567.21	-0.0014
567.554	0.0016
567.897	0.0016
568.24	-0.0027
568.584	-0.0041
568.927	-0.0037
569.271	-0.0025
569.614	-0.0032
569.957	-0.0023
570.3	0
570.643	0.0002
570.986	-0.0009
571.329	0.0032
571.672	0.0067
572.015	0.0068
572.358	0.0023
572.701	0.0044
573.044	-0.0009
573.387	0.0011
573.729	-0.0004
574.072	0.0048
574.414	0.0053
574.757	0.0067
575.099	-0.0026
575.442	-0.0093
575.784	-0.0023
576.127	0.0047
576.469	0.0065
576.811	-0.0016
577.153	-0.0015
577.496	-0.0003
577.838	0.0002
578.18	-0.0081
578.522	-0.009
578.864	-0.0093
579.206	0.005
579.548	0.0052
579.889	-0.0025
580.231	0.0045
580.573	0.0075
580.915	0.0042
581.256	-0.0083
581.598	-0.0176
581.939	-0.0165
582.281	-0.0018
582.622	-0.0026
582.964	0.0001
583.305	-0.0066
583.646	0.0016
583.988	0.0234
584.329	0.0095
584.67	0.0034
585.011	-0.015
585.352	-0.0156
585.693	-0.0122
586.034	-0.0166
586.375	-0.0121
586.716	-0.007
587.057	-0.0013
587.398	0.0067
587.738	0.0096
588.079	0.0036
588.42	0.0014
588.76	-0.0106
589.101	-0.0077
589.441	-0.0133
589.782	-0.0042
590.122	0.0051
590.463	0.0058
590.803	-0.0014
591.143	-0.0053
591.483	-0.0084
591.823	-0.0089
592.164	-0.0103
592.504	-0.001
592.844	-0.0001
593.184	-0.0018
593.523	-0.0114
593.863	-0.0091
594.203	-0.0044
594.543	0.002
594.883	-0.0039
595.222	0.0005
595.562	0.009
595.901	0.0079
596.241	-0.001
596.58	-0.0092
596.92	-0.0119
597.259	-0.0119
597.599	-0.0078
597.938	0.0047
598.277	0.0033
598.616	-0.0051
598.955	-0.0122
599.295	-0.011
599.634	0.0013
599.973	0.0045
600.312	0.0079
600.65	-0.0036
600.989	-0.003
601.328	0.0016
601.667	0.015
602.005	0.0058
602.344	0.0005
602.683	-0.0019
603.021	0.001
603.36	-0.0053
603.698	-0.0113
604.037	-0.0098
604.375	-0.0055
604.713	-0.0072
605.052	-0.0063
605.39	-0.0073
605.728	-0.0032
606.066	0.0058
606.404	0.0095
606.742	0.0023
607.08	-0.003
607.418	-0.0106
607.756	-0.0046
608.094	0.0002
608.431	0.0038
608.769	0.0064
609.107	-0.0044
609.444	-0.0007
609.782	-0.0054
610.12	0.0021
610.457	-0.0015
610.794	-0.0094
611.132	-0.0083
611.469	-0.0083
611.806	-0.0052
612.144	-0.0113
612.481	-0.0063
612.818	0
613.155	-0.0041
613.492	-0.0064
613.829	-0.0069
614.166	-0.0002
614.503	-0.0022
614.84	-0.005
615.176	-0.0072
615.513	-0.0067
615.85	-0.0034
616.187	0.0007
616.523	-0.0015
616.86	-0.0037
617.196	0.002
617.533	0.0116
617.869	0.0066
618.205	-0.0019
618.542	-0.0124
618.878	-0.0171
619.214	-0.0121
619.55	-0.0077
619.886	-0.0025
620.222	-0.0101
620.558	-0.0091
620.894	-0.0018
621.23	-0.0017
621.566	-0.0041
621.902	-0.0086
622.238	-0.0101
622.573	-0.0013
622.909	-0.006
623.244	-0.0028
623.58	-0.0167
623.916	-0.013
624.251	-0.0029
624.586	0.0104
624.922	0.0078
625.257	-0.006
625.592	-0.0114
625.927	-0.0079
626.263	-0.0053
626.598	-0.0028
626.933	-0.0058
627.268	-0.0009
627.603	-0.0074
627.938	-0.0094
628.272	-0.0063
628.607	-0.0077
628.942	-0.0047
629.277	-0.0094
629.611	-0.0036
629.946	0.0031
630.281	0.0001
630.615	-0.0018
630.949	-0.0124
631.284	-0.0096
631.618	-0.0048
631.953	0.0018
632.287	-0.0002
632.621	-0.0076
632.955	-0.0101
633.289	-0.0094
633.623	-0.0072
633.957	-0.0061
634.291	-0.007
634.625	-0.0018
634.959	-0.0078
635.293	-0.0036
635.627	-0.0042
635.96	0.0014
636.294	-0.0031
636.627	-0.0048
636.961	0.0004
637.294	0.0008
637.628	-0.0034
637.961	-0.0092
638.295	-0.0081
638.628	-0.0005
638.961	0.0048
639.294	0.0065
639.628	-0.0022
639.961	-0.0098
640.294	-0.0113
640.627	-0.0055
640.96	0.0017
641.293	0.0012
641.625	0
641.958	-0.0063
642.291	-0.0105
642.624	-0.0087
642.956	-0.0097
643.289	-0.0028
643.621	-0.0037
643.954	-0.0024
644.286	-0.0028
644.619	-0.0047
644.951	-0.0023
645.283	-0.0034
645.616	-0.0014
645.948	-0.002
646.28	-0.0008
646.612	-0.0043
646.944	-0.0043
647.276	-0.0076
647.608	-0.0021
647.94	-0.0065
648.272	-0.0058
648.603	-0.0109
648.935	-0.0069
649.267	-0.0062
649.598	-0.0067
649.93	-0.0088
650.261	-0.0078
650.593	0.0001
650.924	0.0077
651.256	0.0059
651.587	0.0001
651.918	-0.0055
652.25	-0.0055
652.581	-0.0046
652.912	-0.0053
653.243	-0.0072
653.574	-0.0091
653.905	-0.0103
654.236	-0.012
654.567	-0.007
654.897	-0.0062
655.228	-0.0051
655.559	-0.0008
655.89	0.0044
656.22	0.002
656.551	-0.0036
656.881	-0.0066
657.212	-0.0031
657.542	-0.0013
657.872	0.0022
658.203	0.0106
658.533	0.0815
658.863	0.0361
659.193	0.0078
659.523	-0.0321
659.853	-0.0604
660.183	-0.0384
660.513	-0.0177
660.843	-0.0103
661.173	-0.0086
661.503	-0.0075
661.833	-0.0071
662.162	-0.0071
662.492	-0.0084
662.822	-0.0101
663.151	-0.0115
663.481	-0.0079
663.81	-0.006
664.139	-0.0017
664.469	-0.0044
664.798	-0.0036
665.127	-0.0039
665.456	-0.0004
665.785	0.0006
666.114	-0.0047
666.443	-0.0031
666.772	-0.0036
667.101	-0.0008
667.43	-0.0007
667.759	-0.0021
668.088	-0.0009
668.416	-0.0071
668.745	-0.0032
669.074	-0.0011
669.402	0.0049
669.731	0.0011
670.059	-0.0039
670.388	-0.0118
670.716	-0.0107
671.044	-0.0077
671.372	-0.0018
671.701	-0.0014
672.029	0.0022
672.357	0.0035
672.685	0.0041
673.013	0.0032
673.341	-0.003
673.669	-0.0049
673.996	-0.0075
674.324	0.002
674.652	0.0009
674.98	0.001
675.307	-0.0009
675.635	-0.0034
675.962	-0.0025
676.29	-0.0095
676.617	-0.0078
676.945	-0.0087
677.272	-0.0093
677.599	-0.0043
677.926	-0.0049
678.253	-0.002
678.581	-0.0089
678.908	-0.0108
679.235	-0.0053
679.561	-0.006
679.888	-0.0074
680.215	-0.0111
680.542	0.0012
680.869	-0.0005
681.195	-0.0071
681.522	-0.0121
681.849	-0.0062
682.175	0.0007
682.502	0.0048
682.828	0.0037
683.154	0.0031
683.481	-0.003
683.807	-0.0068
684.133	0.0015
684.459	0.0016
684.785	0.0067
685.111	-0.0028
685.437	-0.0022
685.763	-0.0102
686.089	-0.0059
686.415	-0.0044
686.741	0.0007
687.067	0.0021
687.392	-0.0001
687.718	0.0022
688.043	0.0011
688.369	0.0036
688.694	-0.0006
689.02	-0.003
689.345	-0.0073
689.67	-0.0018
689.996	-0.0012
690.321	0.0013
690.646	-0.0029
690.971	0.0009
691.296	0.0053
691.621	0.0079
691.946	0.0063
692.271	0.0062
692.596	-0.0011
692.921	-0.0034
693.245	-0.0091
693.57	-0.0021
693.895	0.001
694.219	0.001
694.544	-0.0062
694.868	-0.0109
695.193	-0.0084
695.517	-0.0018
695.841	0.0028
696.166	-0.0018
696.49	-0.0058
696.814	-0.0103
697.138	-0.0081
697.462	-0.0017
697.786	0.0014
698.11	0.007
698.434	-0.001
698.758	-0.0072
699.081	-0.0162
699.405	-0.0054
699.729	0.0126
700.052	0.0119
700.376	0.0035
700.7	-0.0083
701.023	-0.009
701.346	-0.0059
701.67	-0.0049
701.993	-0.0026
702.316	-0.0021
702.639	-0
702.963	-0.0027
703.286	-0.0047
703.609	-0.007
703.932	-0.0077
704.255	-0.0099
704.578	-0.0082
704.9	-0.0054
705.223	-0.002
705.546	-0.0031
705.868	-0.0041
706.191	-0.0079
706.514	-0.0109
706.836	-0.0123
707.159	-0.0049
707.481	0.0005
707.803	-0.0008
708.126	-0.0062
708.448	-0.0095
708.77	-0.0033
709.092	0.0001
709.414	0.0069
709.736	0.0043
710.058	-0.0017
710.38	-0.0069
710.702	-0.0096
711.024	-0.0076
711.345	-0.0118
711.667	-0.0109
711.989	-0.0098
712.31	-0.0048
712.632	-0.0029
712.953	-0.0032
713.275	-0.0053
713.596	-0.0061
713.917	-0.0089
714.239	-0.0098
714.56	-0.0108
714.881	-0.0072
715.202	-0.0035
715.523	0.0048
715.844	-0
716.165	0.0009
716.486	-0.0082
716.807	-0.0057
717.128	-0.0071
717.448	-0.0058
717.769	-0.0065
718.09	-0.0084
718.41	-0.0103
718.731	-0.006
719.051	-0.0054
719.372	-0.0042
719.692	-0.0024
720.012	0.0022
720.332	0.0024
720.653	0.0014
720.973	0.0029
721.293	-0.0029
721.613	-0.0107
721.933	-0.0166
722.253	-0.0099
722.573	-0.0101
722.892	-0.0104
723.212	-0.0087
723.532	-0.0009
723.851	0.0027
724.171	0.0015
724.491	0.002
724.81	0.0026
725.129	0.0037
725.449	0.002
725.768	-0.0031
726.087	-0.0032
726.407	-0.0046
726.726	-0.0021
727.045	-0.009
727.364	-0.0043
727.683	-0.0021
728.002	0.0044
728.321	-0.0014
728.64	-0.0051
728.958	-0.0017
729.277	-0.0024
729.596	-0.0046
729.914	-0.0071
730.233	-0.0021
730.551	0.0048
730.87	0.0014
731.188	0.001
731.507	-0.0064
731.825	-0.0105
732.143	-0.014
732.461	-0.0069
732.779	-0.0037
733.097	-0.0028
733.415	0.0019
733.733	0.0084
734.051	0.0012
734.369	-0.0039
734.687	-0.0141
735.005	-0.0083
735.322	-0.0092
735.64	0.0008
735.957	0.0023
736.275	-0.0013
736.592	-0.0028
736.91	-0.0039
737.227	0.0007
737.544	-0.007
737.862	-0.0059
738.179	-0.0086
738.496	-0.0003
738.813	-0.0055
739.13	-0.0112
739.447	-0.0136
739.764	-0.0056
740.081	-0.0024
740.398	-0.0069
740.714	-0.0082
741.031	-0.0059
741.348	-0.0044
741.664	0.0001
741.981	0.0056
742.297	0.0023
742.614	-0.0067
742.93	-0.0133
743.246	-0.0094
743.563	-0.0023
743.879	-0.0016
744.195	-0.0026
744.511	-0.0084
744.827	-0.0114
745.143	-0.0057
745.459	-0.0037
745.775	-0.0023
746.091	-0.0059
746.406	-0.0058
746.722	-0.0041
747.038	-0.0069
747.353	-0.0052
747.669	-0.009
747.984	-0.0108
748.3	-0.0084
748.615	-0.0012
748.93	0.0036
749.246	-0.0059
749.561	-0.0112
749.876	-0.0125
750.191	-0.0065
750.506	-0.006
750.821	-0.0063
751.136	-0.0052
751.451	-0.0031
751.766	-0.0052
752.08	-0.0044
752.395	-0.0032
752.71	-0.0002
753.024	-0.0026
753.339	-0.002
753.653	-0.004
753.968	-0.0008
754.282	-0.0014
754.596	-0.0003
754.911	-0.0056
755.225	-0.0015
755.539	-0.0071
755.853	-0.0079
756.167	-0.0146
756.481	-0.0057
756.795	-0.0076
757.109	-0.005
757.423	-0.0045
757.736	0.0001
758.05	0.0003
758.364	0.0026
758.677	0.0029
758.991	-0.0024
759.304	-0.0045
759.618	-0.0006
759.931	0.0016
760.244	0.0065
760.558	0.0007
760.871	-0.0019
761.184	-0.0122
761.497	-0.0118
761.81	-0.0069
762.123	-0.0004
762.436	-0.0013
762.749	-0.0055
763.062	-0.0082
763.374	-0.0018
763.687	-0.0028
764	-0.0024
764.312	-0.0101
764.625	-0.0083
764.937	-0.0142
765.25	-0.0096
765.562	-0.0017
765.874	0.0009
766.186	0.0002
766.499	-0.0059
766.811	-0.0039
767.123	0.0002
767.435	0.0003
767.747	-0.0019
768.059	-0.0093
768.37	-0.0092
768.682	-0.0069
768.994	-0.0106
769.306	-0.0138
769.617	-0.015
769.929	-0.0079
770.24	-0.0038
770.552	-0.001
770.863	-0.0018
771.174	-0.0056
771.486	-0.0085
771.797	-0.0098
772.108	-0.0156
772.419	-0.0192
772.73	-0.0154
773.041	-0.0045
773.352	-0.0024
773.663	-0.0083
773.974	-0.0087
774.285	-0.0096
774.595	-0.0066
774.906	-0.0066
775.217	-0.0028
775.527	-0.0009
775.838	-0.0013
776.148	-0.0036
776.458	-0.0043
776.769	-0.0095
777.079	-0.0095
777.389	-0.01
777.699	-0.009
778.009	-0.0066
778.319	-0.0015
778.629	-0.0013
778.939	-0.0031
779.249	-0.0039
779.559	-0.0008
779.869	-0.0001
780.178	-0.0066
780.488	-0.0112
780.798	-0.0105
781.107	-0.0032
781.417	0.0038
781.726	0.0006
782.035	-0.0004
782.345	-0.006
782.654	-0.0043
782.963	-0.0042
783.272	-0.0036
783.581	-0.0003
783.89	-0.0008
784.199	-0.0037
784.508	-0.0112
784.817	-0.016
785.126	-0.0121
785.434	-0.004
785.743	-0.0073
786.052	-0.0069
786.36	-0.0122
786.669	-0.0056
786.977	-0.0038
787.285	-0.0007
787.594	0.0023
787.902	0.0004
788.21	-0.0009
788.518	-0.0024
788.826	-0.0052
789.135	-0.0047
789.442	-0.0081
789.75	-0.0086
790.058	-0.0077
790.366	-0.0065
790.674	-0.0024
790.981	0.0014
791.289	0.0034
791.597	0.0006
791.904	-0.0067
792.212	-0.0075
792.519	-0.0073
792.826	0.0015
793.134	0.0008
793.441	0.008
793.748	0.0073
794.055	0.008
794.362	0.0032
794.669	-0.0066
794.976	-0.0072
795.283	-0.0145
795.59	-0.0072
795.897	-0.0097
796.203	-0.0023
796.51	0.0077
796.817	0.0117
797.123	0.0041
797.43	-0.0061
797.736	-0.0088
798.042	-0.0085
798.349	-0.006
798.655	-0.0125
798.961	-0.0055
799.267	-0.0069
799.573	-0.0013
799.879	-0.0049
800.185	-0.0001
800.491	-0.0043
800.797	-0.0056
801.103	-0.0137
801.408	-0.0084
801.714	-0.0054
802.02	-0.0024
802.325	-0.0027
802.631	-0.0044
802.936	0.0002
803.242	-0.0012
803.547	-0.0039
803.852	-0.0065
804.157	-0.0101
804.462	-0.0035
804.768	-0.0101
805.073	-0.0048
805.378	-0.0085
805.682	-0.007
805.987	-0.0065
806.292	-0.0056
806.597	0.0076
806.902	-0.0001
807.206	-0.0041
807.511	-0.0174
807.815	-0.0121
808.12	-0.0037
808.424	-0.0006
808.728	0.0022
809.033	0.0044
809.337	0.0033
809.641	-0.0047
809.945	-0.0081
810.249	-0.0062
810.553	-0.0072
810.857	-0.0082
811.161	-0.0171
811.465	-0.016
811.768	-0.0198
812.072	-0.0088
812.376	0.0033
812.679	0.0095
812.983	0.0064
813.286	-0.0046
813.59	-0.0048
813.893	-0.0093
814.196	-0.0116
814.499	-0.0124
814.803	-0.0074
815.106	-0.0025
815.409	-0.0078
815.712	-0.0098
816.015	-0.0028
816.318	0.002
816.62	-0.0046
816.923	-0.0136
817.226	-0.02
817.528	-0.0091
817.831	-0.0032
818.133	-0.0038
818.436	-0.01
818.738	-0.0122
819.041	-0.0076
819.343	-0.0018
819.645	0.0041
819.947	0.0095
820.249	0.0011
820.551	-0.0052
820.853	-0.013
821.155	-0.0054
821.457	-0.0058
821.759	-0.0006
822.061	-0.0074
822.362	-0.0044
822.664	-0.0098
822.966	-0.0026
823.267	-0.0037
823.569	-0.0012
823.87	-0.0172
824.171	-0.0216
824.473	-0.0258
824.774	-0.0121
825.075	-0.0071
825.376	0.0005
825.677	0.0068
825.978	0.0016
826.279	-0.0079
826.58	-0.016
826.881	-0.0136
827.181	-0.0158
827.482	-0.0168
827.783	-0.0123
828.083	-0.0077
828.384	-0.0076
828.684	-0.0158
828.985	-0.0124
829.285	-0.0067
829.585	0.0004
829.885	0.0067
830.185	0.0094
830.486	0.0037
830.786	-0.0087
831.086	-0.0247
831.385	-0.0206
831.685	-0.0124
831.985	-0.0023
832.285	-0.0063
832.585	0.0006
832.884	-0.0053
833.184	-0.0109
833.483	-0.0259
833.783	-0.033
834.082	-0.0197
834.381	-0.0165
834.681	-0.0086
834.98	-0.0123
835.279	-0.0115
835.578	-0.0037
835.877	-0.0092
836.176	-0.0121
836.475	-0.0155
836.774	-0.0035
837.072	0.0066
837.371	0.0137
837.67	-0.0007
837.968	-0.0021
838.267	-0.01
838.565	-0.0083
838.864	-0.0136
839.162	-0.0158
839.46	-0.0152
839.759	-0.021
840.057	-0.0174
840.355	-0.0072
840.653	-0.007
840.951	-0.013
841.249	-0.0269
841.547	-0.0265
841.845	-0.0154
842.142	0.0027
842.44	0.015
842.738	0.0121
843.035	-0.0062
843.333	-0.0108
843.63	-0.0228
843.928	-0.0065
844.225	-0.0117
844.522	-0.0048
844.82	-0.0203
845.117	-0.0098
845.414	0.0014
845.711	0.0027
846.008	-0.0097
846.305	-0.0156
846.602	-0.0113
846.898	-0.0043
847.195	-0.0029
847.492	-0.0024
847.788	0.0046
848.085	0.0054
848.382	0.0039
848.678	-0.0051
848.974	-0.0009
849.271	0.0052
849.567	-0.0071
849.863	-0.0196
850.159	-0.0137
850.455	-0.0023
850.751	0.0054
851.047	-0.0068
851.343	0.0011
851.639	-0.0042
851.935	0.0029
852.23	-0.0128
852.526	-0.0244
852.822	-0.0255
853.117	-0.0078
853.413	0.0073
853.708	0.0037
854.003	-0.0007
854.299	-0.0207
854.594	-0.01
854.889	-0.0243
855.184	-0.0006
855.479	-0.0032
855.774	0.006
856.069	-0.0068
856.364	-0.0074
856.659	0.0078
856.954	0.0194
857.248	0.0094
857.543	-0.0098
857.837	-0.0251
858.132	-0.0275
858.426	-0.0251
858.721	-0.0252
859.015	-0.0229
859.309	-0.0184
859.604	-0.0007
859.898	0.0029
860.192	0.0085
860.486	-0.0044
860.78	-0.0173
861.074	-0.0177
861.367	-0.0328
861.661	-0.0094
861.955	-0.0124
862.248	0.02
862.542	-0.0117
862.836	-0.0263
863.129	-0.0357
863.422	-0.0109
863.716	-0.0196
864.009	-0.0346
864.302	-0.0272
864.595	-0.0018
864.889	0.0132
865.182	-0.0026
865.475	-0.0167
865.767	-0.0318
866.06	-0.0339
866.353	-0.0382
866.646	-0.0246
866.938	-0.0258
867.231	-0.0276
867.524	-0.0359
867.816	-0.0266
868.109	-0.0158
868.401	-0.0164
868.693	0.0017
868.985	0.0031
869.278	0.0114
869.57	-0.0036
869.862	-0.018
870.154	-0.0328
870.446	-0.009
870.738	-0.0209
871.029	-0.0087
871.321	-0.0428
871.613	-0.0062
871.904	-0.0273
872.196	0.0053
872.487	-0.0367
872.779	-0.0211
873.07	-0.0395
873.362	-0.016
873.653	-0.0219
873.944	-0.0192
874.235	-0.0169
874.526	0.0123
874.817	0.0034
875.108	0.0028
875.399	-0.0123
875.69	0.0049
875.981	0.0128
876.271	0.0026
876.562	-0.0111
876.853	-0.0304
877.143	-0.0313
877.434	-0.0176
877.724	-0.0024
878.014	0.0045
878.305	0.0015
878.595	0.0053
878.885	-0.0059
879.175	0.0104
879.465	0.0223
879.755	0.0334
880.045	0.0186
880.335	0.005
880.624	0.0105
880.914	0.0105
