Data from DIblank4_072817_1a_Absorbance_19-32-34-260.txt Node
Date: Fri Jul 28 19:32:34 MDT 2017
User: Tank Lab
Spectrometer: FLMS01220
Trigger mode: 0
Integration Time (sec): 1.000000E-1
Scans to average: 10
Electric dark correction enabled: true
Nonlinearity correction enabled: false
Boxcar width: 1
XAxis mode: Wavelengths
Number of Pixels in Spectrum: 2048
>>>>>Begin Spectral Data<<<<<
179.47	-0
179.856	-0
180.241	-0
180.626	-0
181.011	-0.2488
181.396	-0.2655
181.781	1.6014
182.166	-1.0945
182.551	0.2694
182.936	1.7464
183.321	-0
183.706	0.286
184.091	-0.1166
184.476	-0.0877
184.86	-0
185.245	-0.2517
185.63	0.0407
186.015	0.1251
186.399	0.1203
186.784	-0
187.169	-0
187.553	-0
187.938	-0
188.322	-0.1084
188.707	-0.0887
189.091	-0.0396
189.475	-0.0266
189.86	-0.0444
190.244	-0.0523
190.629	-0.0473
191.013	-0.0054
191.397	0.0198
191.781	0.0233
192.165	0.0137
192.55	0.0246
192.934	0.0192
193.318	0.0159
193.702	-0.003
194.086	-0.0064
194.47	-0.0065
194.854	0.0023
195.238	-0.0023
195.622	-0.0072
196.006	-0.0097
196.389	-0.0077
196.773	-0.0094
197.157	-0.0056
197.541	0.0019
197.924	0.003
198.308	-0.0003
198.692	-0.0044
199.075	-0.0005
199.459	-0.0012
199.843	0.0005
200.226	-0.0034
200.61	-0.0009
200.993	-0.0011
201.376	0.0006
201.76	0.0004
202.143	-0.001
202.527	-0.0021
202.91	-0.0027
203.293	-0.0047
203.676	-0.0048
204.059	-0.0032
204.443	-0.0011
204.826	0.0017
205.209	-0.0001
205.592	-0.0009
205.975	-0.0043
206.358	-0.0047
206.741	-0.0029
207.124	0.0019
207.507	0.0018
207.89	0.0026
208.273	0.0005
208.655	0.0003
209.038	0.0002
209.421	-0.0003
209.804	0.0026
210.186	0.0027
210.569	0.0029
210.951	0.0031
211.334	0.0016
211.717	0.001
212.099	-0.0026
212.482	-0.0035
212.864	-0.0041
213.246	-0.0013
213.629	-0.0011
214.011	0.0007
214.393	-0.002
214.776	-0.0008
215.158	-0.0033
215.54	-0.0004
215.922	0.0004
216.305	0.0025
216.687	0.0018
217.069	-0.0014
217.451	-0.0013
217.833	-0.0018
218.215	-0.0005
218.597	-0.0004
218.979	-0.0007
219.361	-0.0011
219.742	-0.0001
220.124	0.0026
220.506	0.0036
220.888	0.0017
221.27	0.0012
221.651	0.002
222.033	0.0026
222.415	0.0008
222.796	0.0015
223.178	0.0025
223.559	0.0026
223.941	0.0004
224.322	-0.0007
224.704	-0.001
225.085	0.0001
225.466	0.0006
225.848	0.0006
226.229	0.0006
226.61	0.0011
226.992	0.0011
227.373	-0.0008
227.754	-0.002
228.135	-0.0029
228.516	-0.0009
228.897	-0.0009
229.278	0.0014
229.659	0.0022
230.04	0.002
230.421	0.0009
230.802	-0.0011
231.183	0.0009
231.564	0.0003
231.944	-0.0002
232.325	-0.0019
232.706	-0.002
233.087	-0.0006
233.467	-0
233.848	-0
234.229	-0.0012
234.609	-0.0006
234.99	-0.0009
235.37	0.0006
235.751	0.0005
236.131	0.0012
236.511	0.0021
236.892	0.0019
237.272	0.0006
237.652	-0.0011
238.033	-0.0006
238.413	0.0021
238.793	0.0022
239.173	0.0018
239.553	0.0013
239.933	0.0023
240.313	0.0019
240.694	-0.0009
241.074	-0.0027
241.453	-0.002
241.833	0.0003
242.213	0.0013
242.593	0.0001
242.973	-0.0006
243.353	-0.0019
243.732	-0.0023
244.112	-0.0024
244.492	-0.0022
244.872	-0.0008
245.251	-0.0005
245.631	0.0013
246.01	0.0004
246.39	-0.0005
246.769	-0.0016
247.149	-0.0008
247.528	-0.0003
247.908	-0.0004
248.287	-0.001
248.666	-0.0014
249.045	-0.0014
249.425	-0.002
249.804	-0.0017
250.183	-0.0015
250.562	-0.0026
250.941	-0.0012
251.32	-0.0014
251.699	0.0007
252.078	-0.0016
252.457	-0.0016
252.836	-0.003
253.215	-0.0013
253.594	-0.0012
253.973	0.0001
254.352	-0.0011
254.731	-0.0014
255.109	-0.0027
255.488	-0.0017
255.867	-0.0012
256.245	-0.0014
256.624	-0.0025
257.002	-0.0028
257.381	-0.0019
257.759	-0.001
258.138	-0.001
258.516	-0.0005
258.895	-0.0016
259.273	-0.0024
259.651	-0.0037
260.03	-0.0029
260.408	-0.0009
260.786	-0.0002
261.164	0
261.542	-0.0018
261.921	-0.0018
262.299	-0.0009
262.677	-0.0003
263.055	-0.0009
263.433	-0.0032
263.811	-0.0029
264.188	-0.0036
264.566	-0.0025
264.944	-0.0032
265.322	-0.0012
265.7	-0.0009
266.077	-0.0018
266.455	-0.0037
266.833	-0.0031
267.21	-0.0021
267.588	-0.0019
267.966	-0.0018
268.343	-0.0018
268.721	-0.001
269.098	-0.0029
269.475	-0.002
269.853	-0.0017
270.23	-0.0001
270.607	-0.0013
270.985	-0.0012
271.362	-0.0035
271.739	-0.003
272.116	-0.0038
272.494	-0.0025
272.871	-0.0024
273.248	-0.0018
273.625	-0.002
274.002	-0.0032
274.379	-0.0039
274.756	-0.0037
275.132	-0.0027
275.509	-0.0026
275.886	-0.0028
276.263	-0.0015
276.64	-0.0008
277.016	-0
277.393	-0.0005
277.77	-0.002
278.146	-0.003
278.523	-0.0038
278.899	-0.0036
279.276	-0.004
279.652	-0.0043
280.029	-0.0021
280.405	-0.0011
280.782	-0.0007
281.158	-0.0004
281.534	-0.0015
281.91	-0.0013
282.287	-0.0031
282.663	-0.0012
283.039	-0.0014
283.415	-0.0024
283.791	-0.0032
284.167	-0.0031
284.543	-0.0017
284.919	-0.0014
285.295	-0.0013
285.671	-0.0013
286.047	-0.0014
286.423	-0.0019
286.799	-0.0007
287.174	-0.001
287.55	-0.0022
287.926	-0.003
288.301	-0.0023
288.677	-0.0013
289.053	-0.0027
289.428	-0.0037
289.804	-0.003
290.179	-0.002
290.555	-0.0008
290.93	-0.0014
291.305	-0.0019
291.681	-0.0008
292.056	0.0004
292.431	-0.0008
292.806	-0.0021
293.182	-0.004
293.557	-0.0025
293.932	-0.003
294.307	-0.0017
294.682	-0.0016
295.057	-0.0016
295.432	-0.0017
295.807	-0.0017
296.182	-0.0008
296.557	-0.0001
296.932	-0.0004
297.306	-0.0008
297.681	-0.0018
298.056	-0.0014
298.43	-0.0026
298.805	-0.0045
299.18	-0.0053
299.554	-0.0036
299.929	-0.0007
300.303	0.0009
300.678	-0.0014
301.052	-0.0018
301.427	-0.0026
301.801	-0.0004
302.175	-0.0012
302.55	-0.0007
302.924	-0.0012
303.298	-0.0016
303.672	-0.0018
304.046	-0.0033
304.421	-0.0018
304.795	-0.0019
305.169	-0.0012
305.543	-0.0019
305.917	-0.0016
306.291	-0.0013
306.664	0.0011
307.038	0.0005
307.412	0.0006
307.786	-0.0009
308.16	-0.0006
308.533	-0.0005
308.907	-0.0009
309.281	0
309.654	-0.0011
310.028	-0.0008
310.401	-0.0016
310.775	-0.0015
311.148	-0.0019
311.522	-0.0009
311.895	-0.0006
312.268	0.0012
312.642	-0
313.015	0.0002
313.388	-0.0025
313.761	-0.0025
314.135	-0.0009
314.508	-0.0002
314.881	-0.0007
315.254	-0.002
315.627	-0.0015
316	-0.0001
316.373	-0.0005
316.746	-0.0009
317.118	-0.0019
317.491	-0.0019
317.864	-0.0007
318.237	-0.0007
318.61	-0.0007
318.982	-0.0021
319.355	-0.0027
319.727	-0.0032
320.1	-0.0029
320.473	-0.0022
320.845	-0.0018
321.218	-0.0017
321.59	-0.0005
321.962	-0.0009
322.335	-0.002
322.707	-0.0028
323.079	-0.0026
323.452	-0.0021
323.824	-0.0015
324.196	-0.0008
324.568	-0.0025
324.94	-0.0034
325.312	-0.0021
325.684	0.0004
326.056	-0.0007
326.428	-0.0025
326.8	-0.0041
327.172	-0.0034
327.544	-0.0052
327.915	-0.0063
328.287	-0.0049
328.659	-0.002
329.031	0
329.402	-0.0023
329.774	-0.0041
330.145	-0.0058
330.517	-0.0048
330.888	-0.0045
331.26	-0.0037
331.631	-0.003
332.003	-0.0014
332.374	-0.0001
332.745	-0.0003
333.117	-0.002
333.488	-0.003
333.859	-0.0021
334.23	-0.0023
334.601	-0.0004
334.972	-0.001
335.343	0.0002
335.714	-0.0017
336.085	-0.0025
336.456	-0.0041
336.827	-0.0039
337.198	-0.0024
337.569	-0.0028
337.94	-0.002
338.31	-0.003
338.681	-0.001
339.052	-0.0012
339.422	0.0001
339.793	-0.0008
340.164	-0.0015
340.534	-0.0038
340.905	-0.0038
341.275	-0.0053
341.645	-0.0043
342.016	-0.0033
342.386	-0.0027
342.756	-0.0025
343.127	-0.003
343.497	-0.003
343.867	-0.0027
344.237	-0.0024
344.607	-0.0026
344.977	-0.0032
345.347	-0.0037
345.717	-0.0043
346.087	-0.0039
346.457	-0.0023
346.827	0
347.197	-0.0007
347.567	-0.0026
347.936	-0.0034
348.306	-0.0013
348.676	-0.0005
349.046	0.0004
349.415	-0.0009
349.785	0.0003
350.154	-0.002
350.524	-0.002
350.893	-0.0047
351.263	-0.0037
351.632	-0.0036
352.001	-0.0041
352.371	-0.0034
352.74	-0.0027
353.109	0.0003
353.478	0.0006
353.847	-0.0004
354.217	-0.0007
354.586	-0.0018
354.955	-0.0008
355.324	-0.002
355.693	-0.0005
356.062	-0.0021
356.43	-0.002
356.799	-0.0041
357.168	-0.0044
357.537	-0.0043
357.906	-0.0028
358.274	-0.004
358.643	-0.0057
359.011	-0.006
359.38	-0.0043
359.749	-0.0032
360.117	-0.0046
360.486	-0.0026
360.854	-0.0023
361.222	-0.003
361.591	-0.0046
361.959	-0.0068
362.327	-0.0043
362.695	-0.0037
363.064	-0.0012
363.432	-0.0017
363.8	-0.0035
364.168	-0.0038
364.536	-0.0046
364.904	-0.0049
365.272	-0.0065
365.64	-0.0064
366.008	-0.005
366.376	-0.004
366.743	-0.0045
367.111	-0.0039
367.479	-0.0049
367.847	-0.0054
368.214	-0.0054
368.582	-0.0046
368.949	-0.0009
369.317	-0.0027
369.684	-0.0033
370.052	-0.006
370.419	-0.0043
370.787	-0.0025
371.154	-0.002
371.521	-0.0021
371.889	-0.0018
372.256	-0.0015
372.623	-0.0011
372.99	-0.0018
373.357	-0.0021
373.724	-0.0033
374.091	-0.0024
374.458	-0.0033
374.825	-0.0033
375.192	-0.0042
375.559	-0.0037
375.926	-0.0031
376.293	-0.004
376.659	-0.0043
377.026	-0.005
377.393	-0.0032
377.759	-0.0019
378.126	-0.0014
378.492	-0.0028
378.859	-0.0034
379.225	-0.0042
379.592	-0.0033
379.958	-0.0023
380.325	-0.001
380.691	-0.0027
381.057	-0.004
381.423	-0.0055
381.79	-0.0047
382.156	-0.0065
382.522	-0.0068
382.888	-0.0066
383.254	-0.0045
383.62	-0.0032
383.986	-0.0016
384.352	-0.0034
384.718	-0.0045
385.084	-0.0056
385.449	-0.0042
385.815	-0.0035
386.181	-0.0018
386.547	-0.0011
386.912	-0.0027
387.278	-0.0038
387.643	-0.0052
388.009	-0.0031
388.374	-0.0065
388.74	-0.0046
389.105	-0.0051
389.471	-0.0032
389.836	-0.0045
390.201	-0.0037
390.566	-0.0027
390.932	-0.0032
391.297	-0.0053
391.662	-0.006
392.027	-0.0056
392.392	-0.0055
392.757	-0.0067
393.122	-0.0066
393.487	-0.0058
393.852	-0.005
394.217	-0.0042
394.582	-0.0036
394.946	-0.0037
395.311	-0.0041
395.676	-0.0054
396.04	-0.0034
396.405	-0.0027
396.77	-0.0015
397.134	-0.0047
397.499	-0.0057
397.863	-0.0046
398.227	-0.0019
398.592	-0.0038
398.956	-0.0041
399.32	-0.005
399.685	-0.0032
400.049	-0.0029
400.413	-0.0043
400.777	-0.005
401.141	-0.0056
401.505	-0.0038
401.869	-0.002
402.233	-0.0039
402.597	-0.004
402.961	-0.0066
403.325	-0.0042
403.689	-0.0055
404.053	-0.0033
404.416	-0.0043
404.78	-0.0033
405.144	-0.0021
405.507	-0.0008
405.871	0.0004
406.234	-0.0007
406.598	-0.004
406.961	-0.006
407.325	-0.0076
407.688	-0.0066
408.051	-0.0077
408.415	-0.0071
408.778	-0.0059
409.141	-0.0036
409.504	-0.0016
409.867	-0.0037
410.23	-0.004
410.593	-0.0056
410.956	-0.0048
411.319	-0.0055
411.682	-0.0084
412.045	-0.0079
412.408	-0.0078
412.771	-0.003
413.134	-0.0033
413.496	-0.0027
413.859	-0.0034
414.222	-0.0002
414.584	0.0032
414.947	0.0013
415.309	-0.0008
415.672	-0.0034
416.034	-0.0028
416.396	-0.0042
416.759	-0.0052
417.121	-0.0055
417.483	-0.0065
417.846	-0.0069
418.208	-0.0057
418.57	-0.0044
418.932	-0.0059
419.294	-0.0064
419.656	-0.005
420.018	-0.0028
420.38	-0.0016
420.742	-0.0034
421.104	-0.0033
421.466	-0.0053
421.827	-0.005
422.189	-0.0056
422.551	-0.0061
422.912	-0.0041
423.274	-0.0033
423.636	-0.0018
423.997	-0.0023
424.359	-0.0029
424.72	-0.0021
425.081	-0.0016
425.443	-0.0004
425.804	0.0005
426.165	0.0003
426.527	-0.0002
426.888	-0.0033
427.249	-0.0026
427.61	-0.0028
427.971	-0.0029
428.332	-0.0055
428.693	-0.0071
429.054	-0.0064
429.415	-0.0045
429.776	-0.0046
430.137	-0.0042
430.498	-0.0048
430.858	-0.0035
431.219	-0.0048
431.58	-0.0035
431.94	-0.0035
432.301	-0.0046
432.661	-0.0069
433.022	-0.0074
433.382	-0.0063
433.743	-0.004
434.103	-0.003
434.463	-0.0028
434.824	-0.0037
435.184	-0.0025
435.544	-0.0018
435.904	-0.0004
436.264	-0.0024
436.624	-0.0006
436.985	-0.0035
437.345	-0.0027
437.704	-0.0057
438.064	-0.0059
438.424	-0.0062
438.784	-0.0058
439.144	-0.0054
439.504	-0.0051
439.863	-0.0055
440.223	-0.0043
440.583	-0.0049
440.942	-0.0032
441.302	-0.0017
441.661	-0.0019
442.021	-0.0004
442.38	-0.0033
442.739	-0.0038
443.099	-0.008
443.458	-0.0046
443.817	-0.0054
444.176	-0.0026
444.536	-0.0051
444.895	-0.0037
445.254	-0.006
445.613	-0.0047
445.972	-0.0051
446.331	-0.0033
446.69	-0.0034
447.049	-0.0045
447.407	-0.0062
447.766	-0.0071
448.125	-0.0054
448.484	-0.0034
448.842	-0.0015
449.201	-0.0007
449.559	-0.0026
449.918	-0.0033
450.276	-0.0034
450.635	-0.0016
450.993	-0.0001
451.352	-0.0014
451.71	-0.0003
452.068	-0.0018
452.426	-0.001
452.785	-0.0015
453.143	-0.0015
453.501	-0.0018
453.859	-0.0037
454.217	-0.0026
454.575	-0.0041
454.933	-0.0053
455.291	-0.006
455.649	-0.0063
456.006	-0.0042
456.364	-0.0037
456.722	-0.0023
457.079	-0.0029
457.437	-0.003
457.795	-0.0016
458.152	-0.0005
458.51	-0.0015
458.867	-0.0029
459.225	-0.0025
459.582	-0.0036
459.939	-0.0052
460.297	-0.0073
460.654	-0.0059
461.011	-0.0044
461.368	-0.0011
461.725	-0.0026
462.082	-0.0013
462.44	-0.0049
462.797	-0.0067
463.153	-0.0067
463.51	-0.0056
463.867	-0.0044
464.224	-0.0026
464.581	-0.0027
464.938	-0.0001
465.294	-0.0017
465.651	0.0016
466.008	-0.0026
466.364	-0.0008
466.721	-0.005
467.077	-0.0059
467.434	-0.0111
467.79	-0.0092
468.146	-0.0064
468.503	-0.004
468.859	-0.0058
469.215	-0.0069
469.571	-0.0074
469.927	-0.0037
470.284	-0.0015
470.64	0.0004
470.996	-0.0033
471.352	-0.005
471.707	-0.008
472.063	-0.0036
472.419	-0.0028
472.775	0.0001
473.131	-0.0026
473.486	-0.0063
473.842	-0.0058
474.198	-0.0058
474.553	-0.0027
474.909	-0.0036
475.264	-0.0043
475.62	-0.0029
475.975	-0.0052
476.331	-0.0029
476.686	-0.0028
477.041	-0.0027
477.396	-0.0045
477.752	-0.0049
478.107	-0.0045
478.462	-0.004
478.817	-0.0041
479.172	-0.0019
479.527	-0.0049
479.882	-0.005
480.237	-0.0077
480.591	-0.0056
480.946	-0.0043
481.301	-0.002
481.656	-0.0015
482.01	-0.0035
482.365	-0.0041
482.72	-0.0053
483.074	-0.0039
483.429	-0.0033
483.783	-0.0023
484.137	-0.0043
484.492	-0.0051
484.846	-0.0038
485.2	-0.0001
485.555	0.0007
485.909	-0.0012
486.263	-0.0033
486.617	-0.0035
486.971	-0.003
487.325	-0.0035
487.679	-0.0053
488.033	-0.0033
488.387	-0.0028
488.741	-0.0037
489.094	-0.0047
489.448	-0.0053
489.802	-0.0036
490.156	-0.0048
490.509	-0.0039
490.863	-0.0029
491.216	-0.003
491.57	-0.0043
491.923	-0.0062
492.277	-0.0055
492.63	-0.0047
492.983	-0.003
493.337	-0.005
493.69	-0.0064
494.043	-0.0076
494.396	-0.0064
494.749	-0.0051
495.102	-0.0062
495.455	-0.0055
495.808	-0.0052
496.161	-0.0064
496.514	-0.0068
496.867	-0.0077
497.22	-0.0061
497.572	-0.0044
497.925	-0.002
498.278	-0.0007
498.63	-0.0033
498.983	-0.0056
499.335	-0.0068
499.688	-0.0053
500.04	-0.0071
500.393	-0.0076
500.745	-0.0102
501.097	-0.01
501.449	-0.0096
501.802	-0.0086
502.154	-0.0086
502.506	-0.0064
502.858	-0.0066
503.21	-0.0046
503.562	-0.0076
503.914	-0.0074
504.266	-0.008
504.618	-0.0062
504.969	-0.0039
505.321	-0.003
505.673	-0.0038
506.025	-0.0067
506.376	-0.0101
506.728	-0.0081
507.079	-0.0048
507.431	-0.0023
507.782	-0.0031
508.134	-0.0049
508.485	-0.0043
508.836	-0.0039
509.188	-0.0056
509.539	-0.006
509.89	-0.0046
510.241	-0.0046
510.592	-0.004
510.943	-0.0047
511.294	-0.0024
511.645	-0.0038
511.996	-0.0041
512.347	-0.0071
512.698	-0.0051
513.049	-0.0052
513.399	-0.0044
513.75	-0.0057
514.101	-0.0071
514.451	-0.005
514.802	-0.0057
515.152	-0.004
515.503	-0.0053
515.853	-0.0041
516.203	-0.0053
516.554	-0.0048
516.904	-0.006
517.254	-0.0054
517.604	-0.0056
517.955	-0.0063
518.305	-0.0091
518.655	-0.0101
519.005	-0.0101
519.355	-0.0093
519.705	-0.0093
520.055	-0.0101
520.404	-0.0099
520.754	-0.0102
521.104	-0.0065
521.454	-0.0045
521.803	-0.0053
522.153	-0.0072
522.502	-0.0086
522.852	-0.0052
523.201	-0.0065
523.551	-0.0059
523.9	-0.0115
524.249	-0.0096
524.599	-0.008
524.948	-0.0029
525.297	-0.0017
525.646	-0.0055
525.995	-0.0089
526.344	-0.0099
526.694	-0.007
527.042	-0.0054
527.391	-0.0085
527.74	-0.0114
528.089	-0.0097
528.438	-0.0066
528.787	-0.0064
529.135	-0.0082
529.484	-0.0101
529.833	-0.007
530.181	-0.0081
530.53	-0.0075
530.878	-0.0106
531.227	-0.0092
531.575	-0.0084
531.923	-0.0063
532.271	-0.007
532.62	-0.0054
532.968	-0.008
533.316	-0.008
533.664	-0.0081
534.012	-0.0052
534.36	-0.0029
534.708	-0.0038
535.056	-0.0051
535.404	-0.0063
535.752	-0.0059
536.1	-0.0066
536.447	-0.0069
536.795	-0.0058
537.143	-0.0061
537.49	-0.008
537.838	-0.0078
538.185	-0.0072
538.533	-0.0057
538.88	-0.01
539.228	-0.0097
539.575	-0.0097
539.922	-0.0073
540.269	-0.0065
540.617	-0.0059
540.964	-0.0072
541.311	-0.0097
541.658	-0.0087
542.005	-0.0079
542.352	-0.0044
542.699	-0.006
543.045	-0.0066
543.392	-0.0066
543.739	-0.0063
544.086	-0.0088
544.432	-0.0096
544.779	-0.0117
545.126	-0.0098
545.472	-0.0108
545.819	-0.0075
546.165	-0.0081
546.512	-0.0087
546.858	-0.0128
547.204	-0.0117
547.55	-0.0122
547.897	-0.01
548.243	-0.0074
548.589	-0.0043
548.935	-0.0034
549.281	-0.0058
549.627	-0.0089
549.973	-0.0092
550.319	-0.0094
550.665	-0.0091
551.01	-0.0082
551.356	-0.0076
551.702	-0.0062
552.048	-0.0066
552.393	-0.0061
552.739	-0.0089
553.084	-0.0098
553.43	-0.0096
553.775	-0.0079
554.12	-0.0069
554.466	-0.0081
554.811	-0.0107
555.156	-0.0124
555.502	-0.0109
555.847	-0.0059
556.192	-0.004
556.537	-0.005
556.882	-0.0077
557.227	-0.0077
557.572	-0.0085
557.917	-0.007
558.261	-0.0062
558.606	-0.0018
558.951	-0.0062
559.295	-0.0057
559.64	-0.0096
559.985	-0.0055
560.329	-0.0072
560.674	-0.0052
561.018	-0.0056
561.363	-0.0066
561.707	-0.0085
562.051	-0.0098
562.395	-0.0102
562.74	-0.0091
563.084	-0.0095
563.428	-0.0079
563.772	-0.011
564.116	-0.0103
564.46	-0.0123
564.804	-0.0117
565.148	-0.0119
565.492	-0.0126
565.835	-0.0118
566.179	-0.011
566.523	-0.0111
566.866	-0.0094
567.21	-0.0119
567.554	-0.0067
567.897	-0.007
568.24	-0.0023
568.584	-0.0042
568.927	-0.0033
569.271	-0.0053
569.614	-0.0069
569.957	-0.0061
570.3	-0.0065
570.643	-0.0078
570.986	-0.0086
571.329	-0.0079
571.672	-0.0074
572.015	-0.0093
572.358	-0.0079
572.701	-0.0088
573.044	-0.0092
573.387	-0.0111
573.729	-0.0098
574.072	-0.0098
574.414	-0.0114
574.757	-0.0125
575.099	-0.0109
575.442	-0.0101
575.784	-0.0104
576.127	-0.0117
576.469	-0.0101
576.811	-0.0085
577.153	-0.0092
577.496	-0.0115
577.838	-0.0121
578.18	-0.0104
578.522	-0.0101
578.864	-0.0106
579.206	-0.0128
579.548	-0.013
579.889	-0.0135
580.231	-0.0146
580.573	-0.0145
580.915	-0.0142
581.256	-0.0114
581.598	-0.0103
581.939	-0.0101
582.281	-0.0143
582.622	-0.0119
582.964	-0.0085
583.305	-0.0075
583.646	-0.0107
583.988	-0.0157
584.329	-0.0162
584.67	-0.0151
585.011	-0.014
585.352	-0.0113
585.693	-0.0122
586.034	-0.012
586.375	-0.0118
586.716	-0.0106
587.057	-0.0085
587.398	-0.0134
587.738	-0.0123
588.079	-0.0111
588.42	-0.0083
588.76	-0.0081
589.101	-0.0086
589.441	-0.0081
589.782	-0.0094
590.122	-0.0105
590.463	-0.0106
590.803	-0.0096
591.143	-0.0091
591.483	-0.0104
591.823	-0.0095
592.164	-0.0109
592.504	-0.0113
592.844	-0.0138
593.184	-0.012
593.523	-0.0114
593.863	-0.0095
594.203	-0.0128
594.543	-0.0134
594.883	-0.0124
595.222	-0.0112
595.562	-0.0132
595.901	-0.0147
596.241	-0.0147
596.58	-0.0111
596.92	-0.0099
597.259	-0.0065
597.599	-0.0082
597.938	-0.0109
598.277	-0.0104
598.616	-0.0096
598.955	-0.0079
599.295	-0.0087
599.634	-0.0095
599.973	-0.0119
600.312	-0.014
600.65	-0.012
600.989	-0.0084
601.328	-0.0062
601.667	-0.0085
602.005	-0.0095
602.344	-0.0099
602.683	-0.0113
603.021	-0.0117
603.36	-0.0112
603.698	-0.0086
604.037	-0.0079
604.375	-0.0079
604.713	-0.0085
605.052	-0.01
605.39	-0.0119
605.728	-0.013
606.066	-0.014
606.404	-0.0175
606.742	-0.0161
607.08	-0.016
607.418	-0.0123
607.756	-0.0127
608.094	-0.0141
608.431	-0.0134
608.769	-0.0156
609.107	-0.014
609.444	-0.0159
609.782	-0.0138
610.12	-0.0131
610.457	-0.0128
610.794	-0.0118
611.132	-0.0108
611.469	-0.0119
611.806	-0.0125
612.144	-0.0117
612.481	-0.0113
612.818	-0.0086
613.155	-0.0094
613.492	-0.006
613.829	-0.0078
614.166	-0.0093
614.503	-0.0096
614.84	-0.0082
615.176	-0.0086
615.513	-0.0111
615.85	-0.0143
616.187	-0.0121
616.523	-0.0095
616.86	-0.0104
617.196	-0.0151
617.533	-0.017
617.869	-0.0127
618.205	-0.0108
618.542	-0.0078
618.878	-0.0094
619.214	-0.0092
619.55	-0.0132
619.886	-0.0133
620.222	-0.0118
620.558	-0.0123
620.894	-0.0117
621.23	-0.0142
621.566	-0.0144
621.902	-0.0146
622.238	-0.0114
622.573	-0.0095
622.909	-0.0125
623.244	-0.0135
623.58	-0.0136
623.916	-0.0131
624.251	-0.0123
624.586	-0.0163
624.922	-0.0161
625.257	-0.0152
625.592	-0.0113
625.927	-0.0066
626.263	-0.0073
626.598	-0.0089
626.933	-0.0114
627.268	-0.0123
627.603	-0.013
627.938	-0.0144
628.272	-0.0134
628.607	-0.013
628.942	-0.0113
629.277	-0.0127
629.611	-0.0141
629.946	-0.0145
630.281	-0.014
630.615	-0.0094
630.949	-0.0086
631.284	-0.009
631.618	-0.0114
631.953	-0.0112
632.287	-0.0088
632.621	-0.0096
632.955	-0.01
633.289	-0.0126
633.623	-0.0114
633.957	-0.0101
634.291	-0.0125
634.625	-0.0128
634.959	-0.0135
635.293	-0.0108
635.627	-0.0104
635.96	-0.0108
636.294	-0.0122
636.627	-0.0134
636.961	-0.0175
637.294	-0.017
637.628	-0.015
637.961	-0.0091
638.295	-0.0066
638.628	-0.0065
638.961	-0.0094
639.294	-0.0082
639.628	-0.0068
639.961	-0.0054
640.294	-0.003
640.627	-0.0087
640.96	-0.0122
641.293	-0.0165
641.625	-0.0164
641.958	-0.0119
642.291	-0.0063
642.624	-0.0058
642.956	-0.0074
643.289	-0.0109
643.621	-0.0097
643.954	-0.0151
644.286	-0.0225
644.619	-0.024
644.951	-0.0174
645.283	-0.0117
645.616	-0.0103
645.948	-0.0108
646.28	-0.0109
646.612	-0.0109
646.944	-0.0074
647.276	-0.0064
647.608	-0.0044
647.94	-0.005
648.272	-0.0043
648.603	-0.0072
648.935	-0.0093
649.267	-0.0112
649.598	-0.0106
649.93	-0.0136
650.261	-0.0086
650.593	-0.0061
650.924	-0.0064
651.256	-0.0099
651.587	-0.0109
651.918	-0.0047
652.25	-0.0055
652.581	-0.007
652.912	-0.0114
653.243	-0.01
653.574	-0.01
653.905	-0.0095
654.236	-0.0119
654.567	-0.0117
654.897	-0.0125
655.228	-0.0094
655.559	-0.0084
655.89	-0.011
656.22	-0.0113
656.551	-0.0118
656.881	-0.0085
657.212	-0.012
657.542	-0.0118
657.872	-0.0135
658.203	-0.0107
658.533	-0.0244
658.863	-0.0233
659.193	-0.0172
659.523	-0.0111
659.853	-0.0014
660.183	-0.0036
660.513	-0.0043
660.843	-0.0051
661.173	-0.006
661.503	-0.0105
661.833	-0.0101
662.162	-0.0088
662.492	-0.0025
662.822	-0.0059
663.151	-0.0111
663.481	-0.0187
663.81	-0.0199
664.139	-0.0133
664.469	-0.0122
664.798	-0.008
665.127	-0.01
665.456	-0.005
665.785	-0.0039
666.114	-0.0093
666.443	-0.0137
666.772	-0.0167
667.101	-0.0162
667.43	-0.016
667.759	-0.0154
668.088	-0.0123
668.416	-0.0107
668.745	-0.0085
669.074	-0.0141
669.402	-0.0186
669.731	-0.0183
670.059	-0.0131
670.388	-0.0063
670.716	-0.0104
671.044	-0.0107
671.372	-0.0133
671.701	-0.0125
672.029	-0.0104
672.357	-0.0124
672.685	-0.0097
673.013	-0.0087
673.341	-0.0059
673.669	-0.0055
673.996	-0.0092
674.324	-0.0126
674.652	-0.0144
674.98	-0.0105
675.307	-0.0089
675.635	-0.0091
675.962	-0.0072
676.29	-0.0069
676.617	-0.0036
676.945	-0.0093
677.272	-0.0063
677.599	-0.0079
677.926	-0.0081
678.253	-0.0106
678.581	-0.0113
678.908	-0.0105
679.235	-0.0082
679.561	-0.0065
679.888	-0.0031
680.215	-0.0049
680.542	-0.0065
680.869	-0.0084
681.195	-0.0055
681.522	-0.0056
681.849	-0.0084
682.175	-0.0113
682.502	-0.0129
682.828	-0.0104
683.154	-0.0133
683.481	-0.0126
683.807	-0.0139
684.133	-0.0157
684.459	-0.0163
684.785	-0.0167
685.111	-0.0127
685.437	-0.0101
685.763	-0.0109
686.089	-0.015
686.415	-0.0195
686.741	-0.0153
687.067	-0.0101
687.392	-0.0106
687.718	-0.0129
688.043	-0.0136
688.369	-0.0116
688.694	-0.0089
689.02	-0.0129
689.345	-0.01
689.67	-0.0136
689.996	-0.0101
690.321	-0.0121
690.646	-0.0122
690.971	-0.0115
691.296	-0.0128
691.621	-0.0148
691.946	-0.014
692.271	-0.015
692.596	-0.01
692.921	-0.0107
693.245	-0.0082
693.57	-0.0115
693.895	-0.0098
694.219	-0.0072
694.544	-0.0075
694.868	-0.0065
695.193	-0.0086
695.517	-0.0092
695.841	-0.0139
696.166	-0.0166
696.49	-0.0184
696.814	-0.0155
697.138	-0.0139
697.462	-0.0145
697.786	-0.0174
698.11	-0.0173
698.434	-0.0133
698.758	-0.0108
699.081	-0.0133
699.405	-0.0117
699.729	-0.0136
700.052	-0.0138
700.376	-0.0113
700.7	-0.0101
701.023	-0.0091
701.346	-0.0133
701.67	-0.0137
701.993	-0.0101
702.316	-0.0097
702.639	-0.0135
702.963	-0.0193
703.286	-0.0205
703.609	-0.0197
703.932	-0.0166
704.255	-0.0111
704.578	-0.0088
704.9	-0.0068
705.223	-0.011
705.546	-0.0109
705.868	-0.0101
706.191	-0.0141
706.514	-0.0151
706.836	-0.0158
707.159	-0.01
707.481	-0.0069
707.803	-0.0084
708.126	-0.0062
708.448	-0.0123
708.77	-0.0149
709.092	-0.0145
709.414	-0.0089
709.736	-0.0084
710.058	-0.0148
710.38	-0.0161
710.702	-0.0127
711.024	-0.0091
711.345	-0.0096
711.667	-0.0104
711.989	-0.0099
712.31	-0.0039
712.632	-0.0078
712.953	-0.0077
713.275	-0.0125
713.596	-0.0079
713.917	-0.01
714.239	-0.0135
714.56	-0.0157
714.881	-0.0127
715.202	-0.0119
715.523	-0.0114
715.844	-0.0116
716.165	-0.0099
716.486	-0.0108
716.807	-0.0118
717.128	-0.0109
717.448	-0.0118
717.769	-0.011
718.09	-0.0096
718.41	-0.0076
718.731	-0.0047
719.051	-0.0031
719.372	-0.0008
719.692	-0.0065
720.012	-0.0113
720.332	-0.015
720.653	-0.015
720.973	-0.0141
721.293	-0.0143
721.613	-0.0128
721.933	-0.0097
722.253	-0.0074
722.573	-0.0083
722.892	-0.0136
723.212	-0.0174
723.532	-0.0191
723.851	-0.0174
724.171	-0.0141
724.491	-0.0165
724.81	-0.0186
725.129	-0.0169
725.449	-0.0122
725.768	-0.0102
726.087	-0.0165
726.407	-0.0147
726.726	-0.0132
727.045	-0.0077
727.364	-0.0103
727.683	-0.0062
728.002	-0.009
728.321	-0.0084
728.64	-0.0112
728.958	-0.0089
729.277	-0.011
729.596	-0.0128
729.914	-0.014
730.233	-0.0131
730.551	-0.0134
730.87	-0.0146
731.188	-0.0106
731.507	-0.0093
731.825	-0.0085
732.143	-0.0125
732.461	-0.0112
732.779	-0.0097
733.097	-0.0138
733.415	-0.013
733.733	-0.0144
734.051	-0.0071
734.369	-0.0088
734.687	-0.0105
735.005	-0.012
735.322	-0.0141
735.64	-0.0159
735.957	-0.0158
736.275	-0.0118
736.592	-0.0058
736.91	-0.0055
737.227	-0.0064
737.544	-0.0096
737.862	-0.0109
738.179	-0.0143
738.496	-0.011
738.813	-0.0117
739.13	-0.01
739.447	-0.0114
739.764	-0.0147
740.081	-0.0145
740.398	-0.0133
740.714	-0.0093
741.031	-0.0107
741.348	-0.0165
741.664	-0.0165
741.981	-0.0188
742.297	-0.0148
742.614	-0.0146
742.93	-0.0139
743.246	-0.0134
743.563	-0.0154
743.879	-0.0211
744.195	-0.0206
744.511	-0.0201
744.827	-0.0122
745.143	-0.017
745.459	-0.0193
745.775	-0.0153
746.091	-0.0131
746.406	-0.0114
746.722	-0.013
747.038	-0.0131
747.353	-0.0125
747.669	-0.0178
747.984	-0.0172
748.3	-0.0159
748.615	-0.0211
748.93	-0.0192
749.246	-0.0202
749.561	-0.0162
749.876	-0.0192
750.191	-0.0203
750.506	-0.0206
750.821	-0.0184
751.136	-0.0159
751.451	-0.005
751.766	-0.0063
752.08	-0.0127
752.395	-0.0141
752.71	-0.0134
753.024	-0.0095
753.339	-0.0082
753.653	-0.0072
753.968	-0.011
754.282	-0.0212
754.596	-0.0209
754.911	-0.0186
755.225	-0.0105
755.539	-0.0151
755.853	-0.0113
756.167	-0.0123
756.481	-0.0117
756.795	-0.0132
757.109	-0.0126
757.423	-0.0077
757.736	-0.0075
758.05	-0.0119
758.364	-0.013
758.677	-0.0132
758.991	-0.0069
759.304	-0.0075
759.618	-0.0098
759.931	-0.0123
760.244	-0.0153
760.558	-0.0123
760.871	-0.0133
761.184	-0.009
761.497	-0.0057
761.81	-0.0078
762.123	-0.0134
762.436	-0.0164
762.749	-0.0129
763.062	-0.011
763.374	-0.017
763.687	-0.0176
764	-0.0167
764.312	-0.0083
764.625	-0.0067
764.937	-0.0056
765.25	-0.0101
765.562	-0.0095
765.874	-0.0083
766.186	-0.0075
766.499	-0.0095
766.811	-0.0157
767.123	-0.0202
767.435	-0.0217
767.747	-0.0172
768.059	-0.0122
768.37	-0.013
768.682	-0.0139
768.994	-0.0187
769.306	-0.0166
769.617	-0.0137
769.929	-0.0076
770.24	-0.0052
770.552	-0.0115
770.863	-0.0214
771.174	-0.0227
771.486	-0.0191
771.797	-0.0144
772.108	-0.0168
772.419	-0.0143
772.73	-0.011
773.041	-0.01
773.352	-0.0121
773.663	-0.0184
773.974	-0.0155
774.285	-0.0189
774.595	-0.014
774.906	-0.0129
775.217	-0.0098
775.527	-0.011
775.838	-0.014
776.148	-0.015
776.458	-0.0123
776.769	-0.0107
777.079	-0.0064
777.389	-0.0106
777.699	-0.0136
778.009	-0.0153
778.319	-0.015
778.629	-0.015
778.939	-0.0174
779.249	-0.015
779.559	-0.0128
779.869	-0.0143
780.178	-0.0163
780.488	-0.0177
780.798	-0.0169
781.107	-0.0165
781.417	-0.0204
781.726	-0.0207
782.035	-0.0193
782.345	-0.014
782.654	-0.0165
782.963	-0.0147
783.272	-0.0187
783.581	-0.0142
783.89	-0.0154
784.199	-0.0113
784.508	-0.0169
784.817	-0.0224
785.126	-0.0289
785.434	-0.0222
785.743	-0.0176
786.052	-0.0129
786.36	-0.0185
786.669	-0.0205
786.977	-0.0208
787.285	-0.0173
787.594	-0.0128
787.902	-0.0128
788.21	-0.0166
788.518	-0.0175
788.826	-0.016
789.135	-0.0143
789.442	-0.0154
789.75	-0.0137
790.058	-0.0114
790.366	-0.0125
790.674	-0.0188
790.981	-0.0194
791.289	-0.0197
791.597	-0.0241
791.904	-0.0261
792.212	-0.026
792.519	-0.018
792.826	-0.0171
793.134	-0.0136
793.441	-0.01
793.748	-0.003
794.055	-0.0031
794.362	-0.0084
794.669	-0.0164
794.976	-0.018
795.283	-0.0165
795.59	-0.0114
795.897	-0.0116
796.203	-0.0127
796.51	-0.0172
796.817	-0.0176
797.123	-0.0179
797.43	-0.0144
797.736	-0.0172
798.042	-0.0186
798.349	-0.0212
798.655	-0.0147
798.961	-0.0125
799.267	-0.0057
799.573	-0.0102
799.879	-0.0178
800.185	-0.0214
800.491	-0.0183
800.797	-0.0111
801.103	-0.0098
801.408	-0.0094
801.714	-0.0091
802.02	-0.0115
802.325	-0.0078
802.631	-0.0159
802.936	-0.0211
803.242	-0.0295
803.547	-0.023
803.852	-0.0176
804.157	-0.0173
804.462	-0.0184
804.768	-0.0189
805.073	-0.0108
805.378	-0.0086
805.682	-0.0069
805.987	-0.0164
806.292	-0.013
806.597	-0.0098
806.902	-0.0106
807.206	-0.0178
807.511	-0.0246
807.815	-0.0218
808.12	-0.0167
808.424	-0.0165
808.728	-0.0145
809.033	-0.0138
809.337	-0.0145
809.641	-0.0156
809.945	-0.0167
810.249	-0.0125
810.553	-0.0119
810.857	-0.0134
811.161	-0.0162
811.465	-0.0168
811.768	-0.0185
812.072	-0.0204
812.376	-0.0166
812.679	-0.0129
812.983	-0.0101
813.286	-0.016
813.59	-0.0196
813.893	-0.0216
814.196	-0.0178
814.499	-0.0119
814.803	-0.0099
815.106	-0.0134
815.409	-0.0171
815.712	-0.017
816.015	-0.0133
816.318	-0.0154
816.62	-0.0168
816.923	-0.0168
817.226	-0.0231
817.528	-0.0231
817.831	-0.0265
818.133	-0.0175
818.436	-0.0212
818.738	-0.0154
819.041	-0.0154
819.343	-0.0087
819.645	-0.0161
819.947	-0.0123
820.249	-0.0143
820.551	-0.01
820.853	-0.007
821.155	-0.0118
821.457	-0.0086
821.759	-0.0163
822.061	-0.0026
822.362	-0.0072
822.664	-0.0087
822.966	-0.0167
823.267	-0.0165
823.569	-0.0186
823.87	-0.0275
824.171	-0.0292
824.473	-0.0276
824.774	-0.0192
825.075	-0.0144
825.376	-0.0064
825.677	-0.0042
825.978	-0.0028
826.279	-0.0144
826.58	-0.0055
826.881	-0.015
827.181	-0.0061
827.482	-0.0181
827.783	-0.0158
828.083	-0.0186
828.384	-0.0196
828.684	-0.0219
828.985	-0.0234
829.285	-0.0176
829.585	-0.0152
829.885	-0.0185
830.185	-0.0217
830.486	-0.0223
830.786	-0.0127
831.086	-0.0078
831.385	-0.0119
831.685	-0.0207
831.985	-0.0307
832.285	-0.0229
832.585	-0.0208
832.884	-0.0159
833.184	-0.0218
833.483	-0.0283
833.783	-0.0344
834.082	-0.0312
834.381	-0.0172
834.681	-0.0129
834.98	-0.0034
835.279	-0.0039
835.578	-0.01
835.877	-0.0192
836.176	-0.0251
836.475	-0.0211
836.774	-0.0184
837.072	-0.0166
837.371	-0.0009
837.67	0.0001
837.968	-0.0026
838.267	-0.0209
838.565	-0.0308
838.864	-0.0294
839.162	-0.0329
839.46	-0.0277
839.759	-0.0278
840.057	-0.0222
840.355	-0.0141
840.653	-0.0092
840.951	-0.0087
841.249	-0.0145
841.547	-0.0103
841.845	0.0002
842.142	0.0058
842.44	-0.0077
842.738	-0.0157
843.035	-0.0212
843.333	-0.0225
843.63	-0.0129
843.928	-0.0132
844.225	-0.0107
844.522	-0.0136
844.82	-0.0176
845.117	-0.0128
845.414	-0.0161
845.711	-0.0065
846.008	0.0007
846.305	-0.0082
846.602	-0.0239
846.898	-0.0335
847.195	-0.0393
847.492	-0.0318
847.788	-0.0339
848.085	-0.0221
848.382	-0.0121
848.678	-0.017
848.974	-0.0177
849.271	-0.0207
849.567	-0.018
849.863	-0.0198
850.159	-0.0268
850.455	-0.0253
850.751	-0.0246
851.047	-0.0239
851.343	-0.0245
851.639	-0.0247
851.935	-0.0239
852.23	-0.016
852.526	-0.0159
852.822	-0.0184
853.117	-0.0172
853.413	-0.0144
853.708	-0.0219
854.003	-0.0101
854.299	-0.006
854.594	-0.0012
854.889	-0.0245
855.184	-0.0237
855.479	-0.0092
855.774	0.0027
856.069	-0.0173
856.364	-0.0223
856.659	-0.0306
856.954	-0.0023
857.248	-0.0101
857.543	-0.0102
857.837	-0.0237
858.132	-0.0174
858.426	-0.0169
858.721	-0.0201
859.015	-0.0337
859.309	-0.0337
859.604	-0.0236
859.898	0.0001
860.192	0.0184
860.486	0.011
860.78	-0.0012
861.074	-0.01
861.367	-0.0117
861.661	-0.0066
861.955	-0.0104
862.248	-0.0105
862.542	-0.0124
862.836	-0.0072
863.129	-0.0176
863.422	-0.027
863.716	-0.0239
864.009	-0.0052
864.302	-0.0088
864.595	-0.022
864.889	-0.0427
865.182	-0.0258
865.475	-0.0268
865.767	-0.0168
866.06	-0.0368
866.353	-0.0372
866.646	-0.0367
866.938	-0.0265
867.231	-0.0449
867.524	-0.0449
867.816	-0.0298
868.109	0.0059
868.401	0.0096
868.693	0.001
868.985	-0.023
869.278	-0.0162
869.57	-0.0274
869.862	-0.0365
870.154	-0.0485
870.446	-0.0526
870.738	-0.0491
871.029	-0.0442
871.321	-0.012
871.613	0.0028
871.904	-0.0029
872.196	-0.0097
872.487	-0.0109
872.779	-0.0096
873.07	-0.0127
873.362	0.0042
873.653	0.0245
873.944	-0.0135
874.235	-0.036
874.526	-0.0429
874.817	-0.0297
875.108	-0.0279
875.399	-0.0299
875.69	-0.0147
875.981	-0.0316
876.271	-0.0476
876.562	-0.0472
876.853	-0.0482
877.143	-0.0402
877.434	-0.0388
877.724	-0.0324
878.014	-0.0102
878.305	-0.0281
878.595	-0.0156
878.885	-0.0244
879.175	-0.0142
879.465	0.0121
879.755	0.0012
880.045	0.0033
880.335	-0.0228
880.624	-0.0267
880.914	-0.0267
