Data from DIblank3_072817_1b_Absorbance_18-47-42-182.txt Node
Date: Fri Jul 28 18:47:42 MDT 2017
User: Tank Lab
Spectrometer: FLMS01220
Trigger mode: 0
Integration Time (sec): 1.000000E-1
Scans to average: 10
Electric dark correction enabled: true
Nonlinearity correction enabled: false
Boxcar width: 1
XAxis mode: Wavelengths
Number of Pixels in Spectrum: 2048
>>>>>Begin Spectral Data<<<<<
179.47	-0
179.856	-0
180.241	-0
180.626	-0
181.011	-0.1488
181.396	-0.159
181.781	-0.2983
182.166	-0
182.551	0.8745
182.936	0.5765
183.321	-0
183.706	0.669
184.091	-0.326
184.476	-0.4541
184.86	-0
185.245	-0.7536
185.63	0.2261
186.015	0.0321
186.399	-0
186.784	-0
187.169	-0
187.553	1.2441
187.938	-0
188.322	-0.1289
188.707	-0.0813
189.091	-0.0446
189.475	-0.0335
189.86	-0.0241
190.244	-0.0155
190.629	-0.0027
191.013	0.0182
191.397	0.0311
191.781	0.0337
192.165	0.0193
192.55	0.0261
192.934	0.0233
193.318	0.011
193.702	0.002
194.086	-0.0061
194.47	-0.0022
194.854	0.0036
195.238	0.0055
195.622	0.0061
196.006	0.003
196.389	0.0021
196.773	-0.0011
197.157	-0.0024
197.541	0.0021
197.924	0.0013
198.308	0.0012
198.692	-0.0031
199.075	-0.0047
199.459	-0.0067
199.843	-0.005
200.226	-0.0042
200.61	0.0003
200.993	-0.0019
201.376	-0.001
201.76	-0.0042
202.143	-0.0006
202.527	0.0009
202.91	-0.0001
203.293	-0.0038
203.676	-0.004
204.059	-0.0032
204.443	-0.0025
204.826	-0.0006
205.209	0.0038
205.592	0.0073
205.975	0.0032
206.358	-0.0009
206.741	-0.0029
207.124	0.0037
207.507	0.0026
207.89	0.003
208.273	0.0003
208.655	0.0007
209.038	-0.0008
209.421	-0.0028
209.804	0.0013
210.186	0.0031
210.569	0.0038
210.951	0.0025
211.334	0.0026
211.717	0.0045
212.099	0.0026
212.482	0.0023
212.864	-0.0003
213.246	0.0009
213.629	-0.0012
214.011	0.001
214.393	0.0002
214.776	0.0013
215.158	-0.002
215.54	-0.0008
215.922	0.0022
216.305	0.0053
216.687	0.0052
217.069	0.0004
217.451	0.0005
217.833	-0.001
218.215	-0.0003
218.597	0
218.979	-0.0015
219.361	-0.0023
219.742	-0.0021
220.124	0.0019
220.506	0.0043
220.888	0.0026
221.27	0.0013
221.651	-0.0001
222.033	-0.0001
222.415	-0.0005
222.796	0.0015
223.178	0.0025
223.559	0.0026
223.941	-0
224.322	-0.001
224.704	-0.0033
225.085	0.0002
225.466	-0.0002
225.848	0.0024
226.229	-0.0005
226.61	0.001
226.992	0.0008
227.373	0.001
227.754	0.0007
228.135	-0.0003
228.516	0.0012
228.897	0.0001
229.278	0.0012
229.659	0.0007
230.04	0.0009
230.421	-0.0004
230.802	-0.001
231.183	0.0002
231.564	0.0023
231.944	0.0022
232.325	0.0003
232.706	-0.0016
233.087	-0.0011
233.467	-0.0002
233.848	0.0012
234.229	0.0019
234.609	0.003
234.99	0.0015
235.37	0.0006
235.751	-0.001
236.131	-0.0009
236.511	0.0005
236.892	0.0015
237.272	0.0015
237.652	0.0007
238.033	0.0015
238.413	0.0018
238.793	0.0013
239.173	0.0004
239.553	0.0016
239.933	0.0015
240.313	0.0023
240.694	-0.0002
241.074	-0.001
241.453	-0.0023
241.833	-0.0018
242.213	-0
242.593	-0.0011
242.973	0.0005
243.353	-0.0018
243.732	0.0002
244.112	-0.0009
244.492	0
244.872	-0.0002
245.251	0.0007
245.631	0.0015
246.01	0.0004
246.39	-0
246.769	-0.0005
247.149	0.0009
247.528	0.0016
247.908	0.0015
248.287	0.0012
248.666	0.0002
249.045	0.0012
249.425	0.0004
249.804	-0.0003
250.183	-0.0014
250.562	-0.0009
250.941	0.0003
251.32	0.0008
251.699	0.0005
252.078	0.0007
252.457	0
252.836	-0.0001
253.215	-0
253.594	0.0011
253.973	0.0015
254.352	-0.0002
254.731	-0.0007
255.109	-0.0019
255.488	-0.0015
255.867	-0.0005
256.245	-0.0004
256.624	0.0007
257.002	-0.0006
257.381	0.0001
257.759	-0.0012
258.138	-0.0016
258.516	-0.001
258.895	-0.0008
259.273	-0.0015
259.651	-0.0031
260.03	-0.0033
260.408	-0.0024
260.786	-0.0013
261.164	-0.0003
261.542	0
261.921	-0.0007
262.299	-0.0002
262.677	-0.0003
263.055	0
263.433	-0.0012
263.811	-0.0011
264.188	-0.0016
264.566	-0.0022
264.944	-0.0028
265.322	-0.0012
265.7	0.0007
266.077	0.0004
266.455	-0.0013
266.833	-0.001
267.21	-0.0005
267.588	0.0001
267.966	-0.0012
268.343	-0.001
268.721	-0.0007
269.098	-0.0006
269.475	-0.0002
269.853	-0.0006
270.23	-0.0002
270.607	-0.0018
270.985	-0.0014
271.362	-0.0025
271.739	-0.0022
272.116	-0.0014
272.494	0.0003
272.871	0.0011
273.248	-0.0001
273.625	-0.0016
274.002	-0.0024
274.379	-0.002
274.756	-0.0019
275.132	-0.0022
275.509	-0.0023
275.886	-0.0015
276.263	-0.0012
276.64	-0.0014
277.016	-0.0014
277.393	-0.0002
277.77	-0.0019
278.146	-0.0026
278.523	-0.0028
278.899	-0.0025
279.276	-0.0021
279.652	-0.0034
280.029	-0.0015
280.405	-0.0012
280.782	-0.0002
281.158	-0.0003
281.534	-0.002
281.91	-0.0018
282.287	-0.0027
282.663	-0.0008
283.039	-0.001
283.415	0
283.791	-0.0011
284.167	-0.0014
284.543	-0.0023
284.919	-0.0018
285.295	-0.0016
285.671	-0.0007
286.047	-0.0011
286.423	-0.0023
286.799	-0.002
287.174	-0.0002
287.55	0.0012
287.926	-0.0001
288.301	-0.0007
288.677	-0.0013
289.053	-0.0006
289.428	-0.0013
289.804	-0.0016
290.179	-0.0017
290.555	-0.0005
290.93	-0.0001
291.305	-0.0002
291.681	0.0001
292.056	0.0016
292.431	0.0015
292.806	0.0011
293.182	-0.001
293.557	-0.0016
293.932	-0.0024
294.307	0
294.682	0.0011
295.057	0.0011
295.432	0.0002
295.807	0.0003
296.182	0.0008
296.557	0.0011
296.932	0.0011
297.306	0.0007
297.681	-0.0004
298.056	-0.0007
298.43	-0.0013
298.805	-0.0022
299.18	-0.002
299.554	-0.0015
299.929	0.0007
300.303	-0.0009
300.678	-0.002
301.052	-0.0016
301.427	-0.0001
301.801	0.0015
302.175	0.0008
302.55	0.0013
302.924	0.0008
303.298	-0
303.672	0
304.046	0.0002
304.421	0.0008
304.795	0.0008
305.169	0.0015
305.543	0.0004
305.917	-0.0001
306.291	-0.0001
306.664	0.0014
307.038	0.0005
307.412	-0.0007
307.786	-0.0007
308.16	-0.0005
308.533	0.0001
308.907	-0.0012
309.281	0.0001
309.654	-0.0007
310.028	0.0006
310.401	0.0007
310.775	0.0007
311.148	0.0001
311.522	-0.0008
311.895	-0.0014
312.268	-0.001
312.642	-0.0017
313.015	-0.0003
313.388	-0.0005
313.761	0.0006
314.135	0.0012
314.508	0.0014
314.881	0.0015
315.254	0.001
315.627	-0.0002
316	-0.001
316.373	-0.0024
316.746	-0.0023
317.118	-0.0011
317.491	-0.0002
317.864	0.0011
318.237	0.0001
318.61	-0.0004
318.982	-0.0008
319.355	-0.001
319.727	-0.0006
320.1	-0.0016
320.473	-0.0019
320.845	-0.0016
321.218	-0.0009
321.59	0.0004
321.962	-0.0008
322.335	-0.0015
322.707	-0.0031
323.079	-0.0018
323.452	-0.0005
323.824	0.0024
324.196	0.0015
324.568	0.0001
324.94	-0.0026
325.312	0
325.684	0.0022
326.056	0.0026
326.428	0.0006
326.8	-0.0013
327.172	-0.0021
327.544	-0.0033
327.915	-0.004
328.287	-0.0031
328.659	0.0004
329.031	0.0008
329.402	-0.0008
329.774	-0.0034
330.145	-0.0032
330.517	-0.0019
330.888	-0.0024
331.26	-0.0026
331.631	-0.0026
332.003	-0.0012
332.374	-0.002
332.745	-0.002
333.117	-0.0037
333.488	-0.0021
333.859	-0.0015
334.23	-0.0017
334.601	-0.002
334.972	-0.0009
335.343	0.0009
335.714	-0.0001
336.085	-0.0006
336.456	-0.0009
336.827	-0.001
337.198	-0.0006
337.569	-0.002
337.94	-0.0013
338.31	-0.0022
338.681	-0.001
339.052	0.0004
339.422	0.0011
339.793	0.0004
340.164	-0.0014
340.534	-0.0019
340.905	-0.0017
341.275	-0.002
341.645	-0.0037
342.016	-0.0016
342.386	-0.0007
342.756	0.0001
343.127	-0.002
343.497	-0.0032
343.867	-0.0013
344.237	-0.0008
344.607	-0.0005
344.977	-0.0016
345.347	-0.0009
345.717	-0.0009
346.087	-0.0007
346.457	0
346.827	0.0008
347.197	0.0003
347.567	-0.0018
347.936	-0.0015
348.306	0.0007
348.676	0.0022
349.046	0.0017
349.415	-0.0013
349.785	-0.0009
350.154	-0.0008
350.524	-0.0001
350.893	-0.0022
351.263	-0.0013
351.632	-0.0009
352.001	0.0005
352.371	-0.0011
352.74	-0.0017
353.109	-0.0024
353.478	-0.0008
353.847	0.0002
354.217	0.0013
354.586	-0.001
354.955	-0.0023
355.324	-0.0028
355.693	0.001
356.062	0.0026
356.43	0.0027
356.799	-0.0007
357.168	-0.0022
357.537	-0.0016
357.906	-0.0013
358.274	-0.0001
358.643	-0.0023
359.011	-0.0032
359.38	-0.0042
359.749	-0.0038
360.117	-0.0046
360.486	-0.0036
360.854	-0.0028
361.222	-0.0025
361.591	-0.0034
361.959	-0.0051
362.327	-0.0038
362.695	-0.0032
363.064	-0.0018
363.432	-0.0028
363.8	-0.0035
364.168	-0.0031
364.536	-0.0021
364.904	-0.0023
365.272	-0.0031
365.64	-0.0021
366.008	0.0002
366.376	0
366.743	-0.0007
367.111	-0.0032
367.479	-0.0031
367.847	-0.0026
368.214	-0.0027
368.582	-0.0025
368.949	-0.0015
369.317	-0.0022
369.684	-0.003
370.052	-0.0048
370.419	-0.003
370.787	-0.0011
371.154	0.0012
371.521	0.0009
371.889	0.0012
372.256	-0.0028
372.623	-0.0029
372.99	-0.0051
373.357	-0.0022
373.724	-0.0026
374.091	-0.0008
374.458	-0.0026
374.825	-0.0013
375.192	-0.0022
375.559	-0.0014
375.926	-0.0024
376.293	-0.0033
376.659	-0.0035
377.026	-0.0029
377.393	-0.0014
377.759	-0.0014
378.126	-0.0021
378.492	-0.0012
378.859	-0.0003
379.225	-0.0011
379.592	-0.0023
379.958	-0.0028
380.325	-0.0042
380.691	-0.0043
381.057	-0.0046
381.423	-0.0019
381.79	-0.0035
382.156	-0.005
382.522	-0.0046
382.888	-0.0028
383.254	-0.0008
383.62	-0.0009
383.986	-0.0008
384.352	-0.0019
384.718	-0.0033
385.084	-0.0038
385.449	-0.0025
385.815	-0.0032
386.181	-0.0022
386.547	-0.0026
386.912	-0.0029
387.278	-0.0029
387.643	-0.0022
388.009	0.0008
388.374	0.001
388.74	0.0024
389.105	0.0004
389.471	-0.0007
389.836	-0.0024
390.201	-0.0018
390.566	-0.0008
390.932	-0.0002
391.297	-0.0007
391.662	-0.002
392.027	-0.0037
392.392	-0.0042
392.757	-0.0043
393.122	-0.004
393.487	-0.0039
393.852	-0.0035
394.217	-0.0025
394.582	-0.0017
394.946	-0.004
395.311	-0.0052
395.676	-0.0064
396.04	-0.0032
396.405	-0.0012
396.77	-0.0007
397.134	-0.0021
397.499	-0.0024
397.863	-0.0013
398.227	0
398.592	-0.0023
398.956	-0.0026
399.32	-0.0033
399.685	-0.0016
400.049	-0.0013
400.413	-0.0021
400.777	-0.0038
401.141	-0.0041
401.505	-0.0039
401.869	-0.0037
402.233	-0.005
402.597	-0.0051
402.961	-0.0051
403.325	-0.0005
403.689	0.0003
404.053	0.0017
404.416	-0.0019
404.78	-0.0022
405.144	-0.001
405.507	0.0006
405.871	-0.0002
406.234	-0.0022
406.598	-0.004
406.961	-0.0044
407.325	-0.0033
407.688	-0.0024
408.051	-0.0006
408.415	0.0002
408.778	-0.0001
409.141	0.0002
409.504	0.0002
409.867	-0.0007
410.23	-0.0021
410.593	-0.0046
410.956	-0.0041
411.319	-0.0024
411.682	-0.0029
412.045	-0.0026
412.408	-0.004
412.771	-0.0013
413.134	-0.0019
413.496	-0.0023
413.859	-0.0027
414.222	-0.0024
414.584	0.0011
414.947	-0.0001
415.309	-0.0012
415.672	-0.0007
416.034	-0.0005
416.396	0.0003
416.759	-0.0026
417.121	-0.0023
417.483	-0.0029
417.846	-0.0046
418.208	-0.0042
418.57	-0.0045
418.932	-0.0047
419.294	-0.0038
419.656	-0.0019
420.018	-0.0012
420.38	-0.003
420.742	-0.004
421.104	-0.0029
421.466	-0.0041
421.827	-0.0043
422.189	-0.0046
422.551	-0.0028
422.912	-0.0026
423.274	-0.0015
423.636	-0.0009
423.997	0.0015
424.359	0.0004
424.72	0.0011
425.081	-0.0003
425.443	0.0006
425.804	-0.0006
426.165	-0.0012
426.527	-0.0022
426.888	-0.0036
427.249	-0.0006
427.61	-0.0013
427.971	-0.0008
428.332	-0.0045
428.693	-0.0055
429.054	-0.005
429.415	-0.0029
429.776	-0.0035
430.137	-0.0041
430.498	-0.005
430.858	-0.0012
431.219	-0.0019
431.58	-0.0004
431.94	-0.0019
432.301	-0.0008
432.661	-0.0041
433.022	-0.0035
433.382	-0.0033
433.743	-0.0003
434.103	0
434.463	-0
434.824	-0.0014
435.184	0.0006
435.544	0.0016
435.904	0.0032
436.264	0
436.624	-0.0002
436.985	-0.003
437.345	-0.0012
437.704	-0.0024
438.064	-0.002
438.424	-0.0041
438.784	-0.003
439.144	-0.0031
439.504	-0.0032
439.863	-0.0052
440.223	-0.0042
440.583	-0.0047
440.942	-0.0031
441.302	-0.0034
441.661	-0.0032
442.021	-0.002
442.38	-0.0025
442.739	-0.0026
443.099	-0.0038
443.458	-0.0025
443.817	-0.0008
444.176	-0.0002
444.536	-0.0004
444.895	-0.0003
445.254	-0.0012
445.613	-0.0013
445.972	-0.0025
446.331	-0.0041
446.69	-0.0049
447.049	-0.006
447.407	-0.0044
447.766	-0.0035
448.125	-0.0025
448.484	-0.0023
448.842	-0.0025
449.201	-0.0014
449.559	-0.0013
449.918	0.0004
450.276	0.0007
450.635	0.0007
450.993	-0.0007
451.352	-0.0021
451.71	-0.0014
452.068	-0.003
452.426	-0.0032
452.785	-0.0048
453.143	-0.004
453.501	-0.0039
453.859	-0.0045
454.217	-0.0032
454.575	-0.0032
454.933	-0.0027
455.291	-0.0021
455.649	-0.0025
456.006	-0.0032
456.364	-0.0041
456.722	-0.002
457.079	-0.0019
457.437	-0.0035
457.795	-0.0031
458.152	-0
458.51	0.0022
458.867	0.0004
459.225	-0.0011
459.582	-0.0035
459.939	-0.0028
460.297	-0.0023
460.654	-0.0002
461.011	-0
461.368	0.0007
461.725	-0.0022
462.082	-0.0026
462.44	-0.004
462.797	-0.0024
463.153	-0.0012
463.51	-0.0012
463.867	-0.0009
464.224	0.0006
464.581	0.0032
464.938	0.005
465.294	0.0043
465.651	0.0027
466.008	-0.0021
466.364	-0.0023
466.721	-0.0046
467.077	-0.0037
467.434	-0.0053
467.79	-0.0023
468.146	-0.0012
468.503	-0.0019
468.859	-0.0041
469.215	-0.0051
469.571	-0.006
469.927	-0.0028
470.284	-0.0024
470.64	0.0006
470.996	-0.0018
471.352	0.0006
471.707	0.0003
472.063	0.0022
472.419	0.0021
472.775	0.0047
473.131	0.0023
473.486	0.0008
473.842	-0.0022
474.198	-0.0025
474.553	-0.0009
474.909	-0.0001
475.264	-0.0002
475.62	-0.0004
475.975	-0.0015
476.331	-0.0004
476.686	-0.0001
477.041	-0.0001
477.396	-0.0027
477.752	-0.0032
478.107	-0.0035
478.462	-0.0022
478.817	-0.0035
479.172	-0.0006
479.527	-0.0013
479.882	-0.001
480.237	-0.0035
480.591	-0.0019
480.946	-0.0008
481.301	-0.0012
481.656	-0
482.01	-0.0007
482.365	0.0005
482.72	0.0002
483.074	-0.0004
483.429	-0.0019
483.783	-0.0032
484.137	-0.0033
484.492	-0.0031
484.846	-0.0035
485.2	-0.0016
485.555	-0.0004
485.909	-0.001
486.263	-0.0046
486.617	-0.0047
486.971	-0.0036
487.325	-0.0011
487.679	-0.0036
488.033	-0.0028
488.387	-0.0032
488.741	-0.0006
489.094	-0.001
489.448	-0.0017
489.802	-0.003
490.156	-0.0046
490.509	-0.0018
490.863	-0.0018
491.216	-0.0005
491.57	-0.0026
491.923	-0.0024
492.277	-0.0026
492.63	-0.0015
492.983	-0.0007
493.337	-0.0006
493.69	-0.0012
494.043	-0.004
494.396	-0.0038
494.749	-0.003
495.102	-0.001
495.455	-0.0015
495.808	-0.0025
496.161	-0.004
496.514	-0.0036
496.867	-0.0054
497.22	-0.0039
497.572	-0.0052
497.925	-0.0027
498.278	-0.0034
498.63	-0.0025
498.983	-0.0036
499.335	-0.0041
499.688	-0.0049
500.04	-0.0059
500.393	-0.0066
500.745	-0.0075
501.097	-0.0059
501.449	-0.0045
501.802	-0.0019
502.154	-0.003
502.506	-0.0015
502.858	-0.0018
503.21	-0.0024
503.562	-0.0052
503.914	-0.0055
504.266	-0.0038
504.618	-0.003
504.969	-0.0023
505.321	-0.0022
505.673	-0.003
506.025	-0.0031
506.376	-0.0052
506.728	-0.0032
507.079	-0.0043
507.431	-0.0025
507.782	-0.0037
508.134	-0.0031
508.485	-0.0032
508.836	-0.0023
509.188	-0.005
509.539	-0.0051
509.89	-0.0029
510.241	-0.0011
510.592	-0.0017
510.943	-0.0057
511.294	-0.0037
511.645	-0.004
511.996	-0.002
512.347	-0.0043
512.698	-0.0013
513.049	-0.0018
513.399	0.0008
513.75	-0.0003
514.101	-0.001
514.451	-0.0024
514.802	-0.0039
515.152	-0.005
515.503	-0.0041
515.853	-0.003
516.203	-0.001
516.554	-0.0029
516.904	-0.002
517.254	-0.0004
517.604	0.001
517.955	-0.0023
518.305	-0.0064
518.655	-0.0076
519.005	-0.006
519.355	-0.0068
519.705	-0.0095
520.055	-0.011
520.404	-0.0088
520.754	-0.0058
521.104	-0.0029
521.454	-0.003
521.803	-0.0026
522.153	-0.0049
522.502	-0.0038
522.852	-0.0029
523.201	-0.0013
523.551	-0.0022
523.9	-0.0058
524.249	-0.0079
524.599	-0.0081
524.948	-0.0054
525.297	-0.0049
525.646	-0.0085
525.995	-0.0113
526.344	-0.01
526.694	-0.0068
527.042	-0.0058
527.391	-0.0092
527.74	-0.0088
528.089	-0.0054
528.438	-0.0022
528.787	-0.0031
529.135	-0.007
529.484	-0.009
529.833	-0.0064
530.181	-0.006
530.53	-0.005
530.878	-0.0088
531.227	-0.0078
531.575	-0.0077
531.923	-0.006
532.271	-0.0064
532.62	-0.0056
532.968	-0.0062
533.316	-0.0072
533.664	-0.0051
534.012	-0.0024
534.36	0.0009
534.708	-0.0039
535.056	-0.0052
535.404	-0.0061
535.752	-0.0015
536.1	-0.0025
536.447	-0.0045
536.795	-0.0074
537.143	-0.0078
537.49	-0.0062
537.838	-0.0053
538.185	-0.0044
538.533	-0.0047
538.88	-0.0054
539.228	-0.006
539.575	-0.0081
539.922	-0.0077
540.269	-0.0075
540.617	-0.0063
540.964	-0.0091
541.311	-0.0086
541.658	-0.0069
542.005	-0.0037
542.352	-0.0034
542.699	-0.0038
543.045	-0.0054
543.392	-0.0067
543.739	-0.0078
544.086	-0.0085
544.432	-0.0086
544.779	-0.01
545.126	-0.0077
545.472	-0.007
545.819	-0.0036
546.165	-0.0065
546.512	-0.0054
546.858	-0.0092
547.204	-0.0094
547.55	-0.0108
547.897	-0.0086
548.243	-0.0073
548.589	-0.008
548.935	-0.0073
549.281	-0.0049
549.627	-0.0054
549.973	-0.006
550.319	-0.0092
550.665	-0.007
551.01	-0.0062
551.356	-0.0037
551.702	-0.0046
552.048	-0.0058
552.393	-0.0079
552.739	-0.0079
553.084	-0.0056
553.43	-0.0034
553.775	-0.0029
554.12	-0.0032
554.466	-0.0064
554.811	-0.0085
555.156	-0.011
555.502	-0.0098
555.847	-0.0074
556.192	-0.0055
556.537	-0.0049
556.882	-0.0063
557.227	-0.0096
557.572	-0.0099
557.917	-0.0106
558.261	-0.0088
558.606	-0.0081
558.951	-0.0088
559.295	-0.0071
559.64	-0.0079
559.985	-0.005
560.329	-0.0061
560.674	-0.0035
561.018	-0.0032
561.363	-0.0063
561.707	-0.0088
562.051	-0.0112
562.395	-0.011
562.74	-0.009
563.084	-0.0074
563.428	-0.0037
563.772	-0.0078
564.116	-0.0087
564.46	-0.0101
564.804	-0.0096
565.148	-0.01
565.492	-0.0107
565.835	-0.0095
566.179	-0.0093
566.523	-0.0079
566.866	-0.0082
567.21	-0.0066
567.554	-0.0058
567.897	-0.0035
568.24	-0.003
568.584	-0.0056
568.927	-0.0071
569.271	-0.0092
569.614	-0.0095
569.957	-0.0071
570.3	-0.0083
570.643	-0.0076
570.986	-0.0111
571.329	-0.0086
571.672	-0.0074
572.015	-0.008
572.358	-0.0059
572.701	-0.0072
573.044	-0.0071
573.387	-0.0123
573.729	-0.0119
574.072	-0.0102
574.414	-0.0087
574.757	-0.0095
575.099	-0.0092
575.442	-0.009
575.784	-0.0085
576.127	-0.009
576.469	-0.0097
576.811	-0.0086
577.153	-0.0093
577.496	-0.0087
577.838	-0.0091
578.18	-0.0087
578.522	-0.0095
578.864	-0.0109
579.206	-0.0124
579.548	-0.0141
579.889	-0.0146
580.231	-0.0142
580.573	-0.0115
580.915	-0.0109
581.256	-0.0106
581.598	-0.011
581.939	-0.0113
582.281	-0.0131
582.622	-0.0115
582.964	-0.0073
583.305	-0.0062
583.646	-0.0072
583.988	-0.0132
584.329	-0.0124
584.67	-0.0127
585.011	-0.0111
585.352	-0.0103
585.693	-0.0103
586.034	-0.01
586.375	-0.0099
586.716	-0.0092
587.057	-0.0078
587.398	-0.0095
587.738	-0.0097
588.079	-0.0099
588.42	-0.0084
588.76	-0.007
589.101	-0.0064
589.441	-0.0069
589.782	-0.0075
590.122	-0.0098
590.463	-0.0102
590.803	-0.0104
591.143	-0.0073
591.483	-0.0074
591.823	-0.0064
592.164	-0.0101
592.504	-0.0111
592.844	-0.0139
593.184	-0.0115
593.523	-0.0089
593.863	-0.0053
594.203	-0.0076
594.543	-0.0097
594.883	-0.0105
595.222	-0.0079
595.562	-0.0082
595.901	-0.0073
596.241	-0.0088
596.58	-0.0083
596.92	-0.0089
597.259	-0.0079
597.599	-0.0079
597.938	-0.01
598.277	-0.0078
598.616	-0.0082
598.955	-0.0059
599.295	-0.0082
599.634	-0.0076
599.973	-0.0108
600.312	-0.0129
600.65	-0.0116
600.989	-0.0088
601.328	-0.0058
601.667	-0.0081
602.005	-0.0093
602.344	-0.0098
602.683	-0.0101
603.021	-0.0112
603.36	-0.0116
603.698	-0.0089
604.037	-0.0076
604.375	-0.0058
604.713	-0.0082
605.052	-0.0085
605.39	-0.0122
605.728	-0.0101
606.066	-0.0099
606.404	-0.011
606.742	-0.0113
607.08	-0.0102
607.418	-0.0086
607.756	-0.0088
608.094	-0.0134
608.431	-0.0122
608.769	-0.0119
609.107	-0.0082
609.444	-0.0113
609.782	-0.012
610.12	-0.0121
610.457	-0.0101
610.794	-0.009
611.132	-0.0101
611.469	-0.011
611.806	-0.012
612.144	-0.0113
612.481	-0.0103
612.818	-0.008
613.155	-0.0086
613.492	-0.0069
613.829	-0.0095
614.166	-0.0098
614.503	-0.0105
614.84	-0.0091
615.176	-0.0091
615.513	-0.0111
615.85	-0.013
616.187	-0.0108
616.523	-0.0094
616.86	-0.0107
617.196	-0.0115
617.533	-0.0125
617.869	-0.0084
618.205	-0.0083
618.542	-0.0065
618.878	-0.0089
619.214	-0.0074
619.55	-0.0085
619.886	-0.0078
620.222	-0.0106
620.558	-0.0136
620.894	-0.0111
621.23	-0.0084
621.566	-0.0069
621.902	-0.0109
622.238	-0.0151
622.573	-0.014
622.909	-0.0141
623.244	-0.0118
623.58	-0.0122
623.916	-0.0109
624.251	-0.013
624.586	-0.0132
624.922	-0.0135
625.257	-0.0125
625.592	-0.011
625.927	-0.0101
626.263	-0.0104
626.598	-0.0112
626.933	-0.0091
627.268	-0.0075
627.603	-0.0095
627.938	-0.0118
628.272	-0.0155
628.607	-0.0138
628.942	-0.0122
629.277	-0.0089
629.611	-0.0111
629.946	-0.0123
630.281	-0.0138
630.615	-0.0106
630.949	-0.0095
631.284	-0.0091
631.618	-0.01
631.953	-0.0088
632.287	-0.0084
632.621	-0.0059
632.955	-0.0059
633.289	-0.0038
633.623	-0.0059
633.957	-0.006
634.291	-0.0116
634.625	-0.0118
634.959	-0.0145
635.293	-0.01
635.627	-0.0128
635.96	-0.0133
636.294	-0.0175
636.627	-0.016
636.961	-0.0105
637.294	-0.0093
637.628	-0.01
637.961	-0.0124
638.295	-0.011
638.628	-0.0126
638.961	-0.0162
639.294	-0.0136
639.628	-0.0096
639.961	-0.0065
640.294	-0.0048
640.627	-0.0072
640.96	-0.0096
641.293	-0.0137
641.625	-0.0151
641.958	-0.0154
642.291	-0.0121
642.624	-0.0121
642.956	-0.0076
643.289	-0.0066
643.621	-0.0067
643.954	-0.0138
644.286	-0.0188
644.619	-0.0171
644.951	-0.0137
645.283	-0.0132
645.616	-0.0137
645.948	-0.0163
646.28	-0.0164
646.612	-0.0136
646.944	-0.0073
647.276	-0.0046
647.608	-0.0067
647.94	-0.0061
648.272	-0.0048
648.603	-0.0026
648.935	-0.0063
649.267	-0.0073
649.598	-0.0074
649.93	-0.0106
650.261	-0.0122
650.593	-0.0099
650.924	-0.0051
651.256	-0.0053
651.587	-0.0086
651.918	-0.0061
652.25	-0.0037
652.581	-0.0031
652.912	-0.0045
653.243	-0.0037
653.574	-0.0063
653.905	-0.0111
654.236	-0.0153
654.567	-0.0157
654.897	-0.0146
655.228	-0.0127
655.559	-0.0131
655.89	-0.0125
656.22	-0.0156
656.551	-0.0134
656.881	-0.0108
657.212	-0.0092
657.542	-0.0068
657.872	-0.0093
658.203	-0.0082
658.533	-0.0181
658.863	-0.0175
659.193	-0.0139
659.523	-0.0112
659.853	-0.0069
660.183	-0.0109
660.513	-0.0126
660.843	-0.0116
661.173	-0.0116
661.503	-0.0131
661.833	-0.0148
662.162	-0.0148
662.492	-0.0133
662.822	-0.0133
663.151	-0.0141
663.481	-0.0151
663.81	-0.0182
664.139	-0.0143
664.469	-0.0128
664.798	-0.007
665.127	-0.009
665.456	-0.0083
665.785	-0.0101
666.114	-0.0126
666.443	-0.011
666.772	-0.011
667.101	-0.0122
667.43	-0.0137
667.759	-0.0126
668.088	-0.0104
668.416	-0.0121
668.745	-0.0151
669.074	-0.019
669.402	-0.0202
669.731	-0.0172
670.059	-0.0113
670.388	-0.005
670.716	-0.0055
671.044	-0.0063
671.372	-0.0075
671.701	-0.0119
672.029	-0.0096
672.357	-0.012
672.685	-0.0099
673.013	-0.0131
673.341	-0.0146
673.669	-0.0161
673.996	-0.0175
674.324	-0.0194
674.652	-0.0171
674.98	-0.0127
675.307	-0.0088
675.635	-0.0115
675.962	-0.0147
676.29	-0.0153
676.617	-0.0116
676.945	-0.0092
677.272	-0.0071
677.599	-0.0077
677.926	-0.0082
678.253	-0.0066
678.581	-0.0053
678.908	-0.0085
679.235	-0.0118
679.561	-0.0084
679.888	-0.0038
680.215	-0.0027
680.542	-0.0048
680.869	-0.007
681.195	-0.0051
681.522	-0.0061
681.849	-0.0071
682.175	-0.0084
682.502	-0.01
682.828	-0.0075
683.154	-0.0131
683.481	-0.0099
683.807	-0.0116
684.133	-0.0098
684.459	-0.0116
684.785	-0.0143
685.111	-0.0149
685.437	-0.0164
685.763	-0.0176
686.089	-0.0159
686.415	-0.016
686.741	-0.0134
687.067	-0.0123
687.392	-0.0115
687.718	-0.0123
688.043	-0.0131
688.369	-0.0148
688.694	-0.0123
689.02	-0.0159
689.345	-0.0105
689.67	-0.016
689.996	-0.0113
690.321	-0.0131
690.646	-0.0076
690.971	-0.0072
691.296	-0.012
691.621	-0.0165
691.946	-0.0154
692.271	-0.0129
692.596	-0.0082
692.921	-0.0061
693.245	-0.0018
693.57	-0.0065
693.895	-0.0119
694.219	-0.015
694.544	-0.01
694.868	-0.0089
695.193	-0.0113
695.517	-0.0153
695.841	-0.0189
696.166	-0.0196
696.49	-0.0182
696.814	-0.015
697.138	-0.0123
697.462	-0.0133
697.786	-0.0133
698.11	-0.017
698.434	-0.0119
698.758	-0.0096
699.081	-0.0094
699.405	-0.0117
699.729	-0.0164
700.052	-0.018
700.376	-0.0168
700.7	-0.0144
701.023	-0.0114
701.346	-0.0125
701.67	-0.0115
701.993	-0.0104
702.316	-0.0122
702.639	-0.0147
702.963	-0.0171
703.286	-0.0125
703.609	-0.0123
703.932	-0.0138
704.255	-0.0145
704.578	-0.0154
704.9	-0.0088
705.223	-0.0133
705.546	-0.0108
705.868	-0.0108
706.191	-0.0126
706.514	-0.0159
706.836	-0.0201
707.159	-0.0171
707.481	-0.0147
707.803	-0.0158
708.126	-0.015
708.448	-0.0172
708.77	-0.0156
709.092	-0.0137
709.414	-0.0092
709.736	-0.0088
710.058	-0.0122
710.38	-0.0166
710.702	-0.015
711.024	-0.0117
711.345	-0.006
711.667	-0.0056
711.989	-0.0059
712.31	-0.0073
712.632	-0.0113
712.953	-0.0082
713.275	-0.0073
713.596	-0.0011
713.917	-0.0075
714.239	-0.0089
714.56	-0.0139
714.881	-0.0129
715.202	-0.0148
715.523	-0.0126
715.844	-0.0106
716.165	-0.0134
716.486	-0.0156
716.807	-0.0168
717.128	-0.0131
717.448	-0.0123
717.769	-0.0139
718.09	-0.0102
718.41	-0.008
718.731	-0.0045
719.051	-0.0084
719.372	-0.0092
719.692	-0.0127
720.012	-0.0138
720.332	-0.0166
720.653	-0.014
720.973	-0.0125
721.293	-0.0119
721.613	-0.0118
721.933	-0.0085
722.253	-0.0085
722.573	-0.0097
722.892	-0.0165
723.212	-0.0224
723.532	-0.0289
723.851	-0.0223
724.171	-0.0138
724.491	-0.0133
724.81	-0.0202
725.129	-0.0177
725.449	-0.0119
725.768	-0.0102
726.087	-0.0137
726.407	-0.0133
726.726	-0.0131
727.045	-0.0102
727.364	-0.0099
727.683	-0.0019
728.002	-0.007
728.321	-0.0059
728.64	-0.0088
728.958	-0.0057
729.277	-0.0074
729.596	-0.0093
729.914	-0.0115
730.233	-0.0132
730.551	-0.016
730.87	-0.0143
731.188	-0.0115
731.507	-0.0099
731.825	-0.0111
732.143	-0.0152
732.461	-0.0159
732.779	-0.014
733.097	-0.0129
733.415	-0.0091
733.733	-0.0137
734.051	-0.0138
734.369	-0.0144
734.687	-0.0141
735.005	-0.0131
735.322	-0.0186
735.64	-0.0198
735.957	-0.0154
736.275	-0.0103
736.592	-0.0067
736.91	-0.0085
737.227	-0.011
737.544	-0.0089
737.862	-0.007
738.179	-0.0062
738.496	-0.0075
738.813	-0.0167
739.13	-0.0168
739.447	-0.015
739.764	-0.0132
740.081	-0.0154
740.398	-0.0166
740.714	-0.0108
741.031	-0.01
741.348	-0.0142
741.664	-0.0175
741.981	-0.0162
742.297	-0.0113
742.614	-0.0112
742.93	-0.0092
743.246	-0.0116
743.563	-0.0114
743.879	-0.0165
744.195	-0.0159
744.511	-0.0172
744.827	-0.0139
745.143	-0.0202
745.459	-0.0206
745.775	-0.0174
746.091	-0.0133
746.406	-0.0098
746.722	-0.0155
747.038	-0.0142
747.353	-0.0159
747.669	-0.016
747.984	-0.0143
748.3	-0.0133
748.615	-0.0208
748.93	-0.0211
749.246	-0.0229
749.561	-0.0157
749.876	-0.0193
750.191	-0.02
750.506	-0.0185
750.821	-0.0119
751.136	-0.0114
751.451	-0.0055
751.766	-0.0085
752.08	-0.0104
752.395	-0.0128
752.71	-0.0147
753.024	-0.0113
753.339	-0.0099
753.653	-0.0081
753.968	-0.0083
754.282	-0.0118
754.596	-0.0095
754.911	-0.0097
755.225	-0.0067
755.539	-0.0093
755.853	-0.0091
756.167	-0.0085
756.481	-0.0108
756.795	-0.0125
757.109	-0.0153
757.423	-0.015
757.736	-0.0092
758.05	-0.0107
758.364	-0.0091
758.677	-0.0157
758.991	-0.0165
759.304	-0.0198
759.618	-0.0142
759.931	-0.0135
760.244	-0.0146
760.558	-0.018
760.871	-0.0187
761.184	-0.0164
761.497	-0.0109
761.81	-0.0085
762.123	-0.0137
762.436	-0.0181
762.749	-0.0195
763.062	-0.0146
763.374	-0.0193
763.687	-0.0193
764	-0.0172
764.312	-0.0117
764.625	-0.0092
764.937	-0.0124
765.25	-0.0165
765.562	-0.0174
765.874	-0.0134
766.186	-0.0124
766.499	-0.0119
766.811	-0.0155
767.123	-0.0185
767.435	-0.0213
767.747	-0.021
768.059	-0.0161
768.37	-0.0156
768.682	-0.0143
768.994	-0.0191
769.306	-0.0155
769.617	-0.0149
769.929	-0.0076
770.24	-0.0098
770.552	-0.0166
770.863	-0.0223
771.174	-0.0185
771.486	-0.0137
771.797	-0.0137
772.108	-0.0175
772.419	-0.0143
772.73	-0.0114
773.041	-0.0104
773.352	-0.0147
773.663	-0.0155
773.974	-0.0147
774.285	-0.0158
774.595	-0.0157
774.906	-0.0121
775.217	-0.0104
775.527	-0.0083
775.838	-0.0102
776.148	-0.0104
776.458	-0.0149
776.769	-0.0175
777.079	-0.015
777.389	-0.0127
777.699	-0.0121
778.009	-0.0142
778.319	-0.0143
778.629	-0.0094
778.939	-0.008
779.249	-0.0045
779.559	-0.0081
779.869	-0.0094
780.178	-0.0142
780.488	-0.0165
780.798	-0.0188
781.107	-0.0144
781.417	-0.0153
781.726	-0.015
782.035	-0.0173
782.345	-0.0118
782.654	-0.0104
782.963	-0.0096
783.272	-0.0136
783.581	-0.0144
783.89	-0.0168
784.199	-0.017
784.508	-0.0213
784.817	-0.0195
785.126	-0.0249
785.434	-0.0228
785.743	-0.0197
786.052	-0.0147
786.36	-0.0151
786.669	-0.0191
786.977	-0.0194
787.285	-0.017
787.594	-0.0128
787.902	-0.0104
788.21	-0.0096
788.518	-0.0126
788.826	-0.0129
789.135	-0.0137
789.442	-0.0183
789.75	-0.0165
790.058	-0.0158
790.366	-0.0108
790.674	-0.0172
790.981	-0.0162
791.289	-0.0179
791.597	-0.0193
791.904	-0.0206
792.212	-0.0203
792.519	-0.0131
792.826	-0.0126
793.134	-0.0133
793.441	-0.0142
793.748	-0.013
794.055	-0.011
794.362	-0.0099
794.669	-0.0118
794.976	-0.0097
795.283	-0.0118
795.59	-0.0122
795.897	-0.0138
796.203	-0.0151
796.51	-0.0208
796.817	-0.0248
797.123	-0.0227
797.43	-0.0176
797.736	-0.0173
798.042	-0.0177
798.349	-0.0155
798.655	-0.0079
798.961	-0.0108
799.267	-0.0134
799.573	-0.0197
799.879	-0.025
800.185	-0.0211
800.491	-0.0116
800.797	-0.0027
801.103	-0.003
801.408	-0.0084
801.714	-0.0117
802.02	-0.0169
802.325	-0.0148
802.631	-0.0203
802.936	-0.0211
803.242	-0.0255
803.547	-0.0228
803.852	-0.0227
804.157	-0.0226
804.462	-0.02
804.768	-0.0183
805.073	-0.0245
805.378	-0.0248
805.682	-0.0189
805.987	-0.0081
806.292	-0.0055
806.597	-0.0068
806.902	-0.0148
807.206	-0.02
807.511	-0.0232
807.815	-0.0189
808.12	-0.0178
808.424	-0.0172
808.728	-0.016
809.033	-0.0091
809.337	-0.013
809.641	-0.0136
809.945	-0.0165
810.249	-0.0094
810.553	-0.012
810.857	-0.0162
811.161	-0.0169
811.465	-0.0181
811.768	-0.0132
812.072	-0.0216
812.376	-0.0161
812.679	-0.023
812.983	-0.0162
813.286	-0.0203
813.59	-0.0192
813.893	-0.0197
814.196	-0.0178
814.499	-0.0145
814.803	-0.0149
815.106	-0.018
815.409	-0.0135
815.712	-0.0136
816.015	-0.0138
816.318	-0.0217
816.62	-0.0245
816.923	-0.0235
817.226	-0.0271
817.528	-0.0273
817.831	-0.0282
818.133	-0.0223
818.436	-0.0208
818.738	-0.0159
819.041	-0.0169
819.343	-0.0101
819.645	-0.0181
819.947	-0.0153
820.249	-0.0216
820.551	-0.0189
820.853	-0.0121
821.155	-0.0148
821.457	-0.0127
821.759	-0.0234
822.061	-0.0182
822.362	-0.0167
822.664	-0.0123
822.966	-0.0077
823.267	-0.0082
823.569	-0.0143
823.87	-0.0286
824.171	-0.0295
824.473	-0.0281
824.774	-0.0119
825.075	-0.0153
825.376	-0.0098
825.677	-0.0204
825.978	-0.016
826.279	-0.0244
826.58	-0.0168
826.881	-0.0192
827.181	-0.0088
827.482	-0.0137
827.783	-0.0152
828.083	-0.0212
828.384	-0.0271
828.684	-0.0261
828.985	-0.0229
829.285	-0.0232
829.585	-0.0264
829.885	-0.0251
830.185	-0.0263
830.486	-0.016
830.786	-0.0107
831.086	0.0011
831.385	-0.0096
831.685	-0.0175
831.985	-0.0371
832.285	-0.0312
832.585	-0.0281
832.884	-0.0108
833.184	-0.0144
833.483	-0.027
833.783	-0.0312
834.082	-0.0226
834.381	-0.0151
834.681	-0.0171
834.98	-0.0164
835.279	-0.0049
835.578	0.0001
835.877	0.0053
836.176	0.0026
836.475	0.0062
836.774	-0.0043
837.072	-0.004
837.371	-0.0048
837.67	-0.0007
837.968	-0.0174
838.267	-0.0225
838.565	-0.0221
838.864	-0.0148
839.162	-0.0139
839.46	-0.028
839.759	-0.0173
840.057	-0.0085
840.355	0.0001
840.653	-0.0118
840.951	-0.0179
841.249	-0.015
841.547	-0.0051
841.845	-0.0024
842.142	0.0044
842.44	-0.0094
842.738	-0.0148
843.035	-0.0205
843.333	-0.0073
843.63	-0.006
843.928	0.0008
844.225	0.0016
844.522	-0.0024
844.82	-0.0162
845.117	-0.0188
845.414	-0.027
845.711	-0.0157
846.008	-0.0155
846.305	-0.0113
846.602	-0.0188
846.898	-0.019
847.195	-0.0213
847.492	-0.0216
847.788	-0.0336
848.085	-0.0285
848.382	-0.0209
848.678	-0.019
848.974	-0.0171
849.271	-0.0204
849.567	-0.0082
849.863	-0.0149
850.159	-0.0217
850.455	-0.0311
850.751	-0.0268
851.047	-0.0249
851.343	-0.0234
851.639	-0.0128
851.935	-0.0213
852.23	-0.0232
852.526	-0.0325
852.822	-0.0202
853.117	-0.0063
853.413	0.0003
853.708	-0.0099
854.003	-0.0067
854.299	0.0111
854.594	0.0176
854.889	-0.0089
855.184	-0.023
855.479	-0.0188
855.774	0.0006
856.069	-0.0163
856.364	-0.0211
856.659	-0.0212
856.954	0.0063
857.248	0.0144
857.543	0.0213
857.837	-0.0039
858.132	-0.0015
858.426	-0.0163
858.721	-0.0208
859.015	-0.0384
859.309	-0.0415
859.604	-0.0268
859.898	-0.0079
860.192	-0.0042
860.486	-0.0071
860.78	-0.0242
861.074	-0.0042
861.367	0.0003
861.661	0.0232
861.955	0.0097
862.248	0.0105
862.542	-0.0083
862.836	0.0093
863.129	0.0082
863.422	0.0093
863.716	-0.0088
864.009	-0.0034
864.302	-0.0119
864.595	-0.0251
864.889	-0.0308
865.182	-0.0286
865.475	-0.0228
865.767	-0.0302
866.06	-0.0254
866.353	-0.0298
866.646	-0.0279
866.938	-0.0397
867.231	-0.0431
867.524	-0.0321
867.816	0.0061
868.109	0.0257
868.401	0.0273
868.693	0.0045
868.985	-0.0241
869.278	-0.0348
869.57	-0.0433
869.862	-0.0402
870.154	-0.039
870.446	-0.0466
870.738	-0.0546
871.029	-0.0636
871.321	-0.0482
871.613	-0.0178
871.904	-0.0126
872.196	-0.0065
872.487	-0.0026
872.779	-0.012
873.07	-0.023
873.362	-0.013
873.653	0.0144
873.944	0.0164
874.235	-0.0201
874.526	-0.0297
874.817	-0.0348
875.108	-0.0102
875.399	-0.0164
875.69	0.0058
875.981	-0.0097
876.271	0.0117
876.562	0.0013
876.853	-0.0092
877.143	-0.0372
877.434	-0.0557
877.724	-0.0582
878.014	-0.0221
878.305	-0.0051
878.595	0.0094
878.885	-0.0159
879.175	-0.0292
879.465	-0.0278
879.755	-0.027
880.045	0.0041
880.335	0.0124
880.624	0.0243
880.914	0.0243
