Data from DIblank3_080617_1b_Absorbance_16-17-32-710.txt Node
Date: Sun Aug 06 16:17:32 MDT 2017
User: Tank Lab
Spectrometer: FLMS01220
Trigger mode: 0
Integration Time (sec): 1.000000E-1
Scans to average: 10
Electric dark correction enabled: true
Nonlinearity correction enabled: false
Boxcar width: 1
XAxis mode: Wavelengths
Number of Pixels in Spectrum: 2048
>>>>>Begin Spectral Data<<<<<
179.47	-0.0121
179.856	-0.0121
180.241	0.0726
180.626	0.1798
181.011	0.504
181.396	0.2706
181.781	-0.2847
182.166	0.1354
182.551	-0.1183
182.936	0.0725
183.321	-0.438
183.706	-0
184.091	-0
184.476	-0
184.86	0.418
185.245	-0
185.63	-0.0167
186.015	0.3803
186.399	0.1174
186.784	-0.3729
187.169	-0
187.553	0.5343
187.938	-0
188.322	-0.1283
188.707	-0.1077
189.091	-0.0643
189.475	-0.063
189.86	-0.0247
190.244	-0.019
190.629	-0.0177
191.013	-0.0367
191.397	-0.0215
191.781	-0.002
192.165	0.0049
192.55	-0.0049
192.934	-0.0133
193.318	-0.0207
193.702	-0.0168
194.086	-0.0089
194.47	-0.0036
194.854	-0.0038
195.238	-0.0066
195.622	-0.0048
196.006	-0.0045
196.389	-0.0016
196.773	-0.0002
197.157	0.0031
197.541	0.0019
197.924	-0.0003
198.308	-0.003
198.692	0.0013
199.075	0.0003
199.459	0.0045
199.843	0.0017
200.226	0.0026
200.61	0.0021
200.993	-0
201.376	0.0021
201.76	-0.0022
202.143	-0.0009
202.527	-0.0029
202.91	-0.0002
203.293	0.0034
203.676	0.0055
204.059	0.0053
204.443	0.0005
204.826	-0.0001
205.209	0.0012
205.592	0.0036
205.975	0.0054
206.358	0.0016
206.741	0.0032
207.124	0.0032
207.507	0.0085
207.89	0.0072
208.273	0.0059
208.655	0.0028
209.038	0.003
209.421	0.0035
209.804	0.0028
210.186	0.0038
210.569	0.0046
210.951	0.0064
211.334	0.0051
211.717	0.0033
212.099	0.0015
212.482	0.0001
212.864	0.0005
213.246	0.0025
213.629	0.0007
214.011	0.0006
214.393	0.0012
214.776	0.0039
215.158	0.0035
215.54	0.0029
215.922	0.0043
216.305	0.006
216.687	0.0055
217.069	0.005
217.451	0.0037
217.833	0.0018
218.215	0.0021
218.597	0.0014
218.979	0.0026
219.361	-0.0001
219.742	0.0019
220.124	0.0021
220.506	0.0046
220.888	0.0033
221.27	0.0031
221.651	0.0028
222.033	0.0031
222.415	0.0024
222.796	0.0023
223.178	0.0023
223.559	0.0025
223.941	0.0022
224.322	0.0037
224.704	0.004
225.085	0.0047
225.466	0.0023
225.848	0.0024
226.229	0.0014
226.61	0.0012
226.992	0.0009
227.373	0.0011
227.754	0.0018
228.135	0.0028
228.516	0.0027
228.897	0.0027
229.278	0.0019
229.659	0.0044
230.04	0.0057
230.421	0.0063
230.802	0.0032
231.183	0.0015
231.564	0.0016
231.944	0.0028
232.325	0.0027
232.706	0.001
233.087	-0.0011
233.467	-0.0008
233.848	0.0004
234.229	0.0007
234.609	0.0005
234.99	-0.0002
235.37	-0.0006
235.751	0.0006
236.131	0.0006
236.511	0.0002
236.892	-0.0007
237.272	0.0002
237.652	0.0006
238.033	0.0003
238.413	-0.0006
238.793	0.0005
239.173	0.0001
239.553	0.0008
239.933	0.0001
240.313	0.001
240.694	0.0007
241.074	0.0017
241.453	0.001
241.833	0.0001
242.213	-0.0005
242.593	-0.0004
242.973	-0.0004
243.353	-0.0006
243.732	-0.002
244.112	-0.0019
244.492	-0.0015
244.872	-0.0007
245.251	0.0007
245.631	-0
246.01	-0.0002
246.39	-0.0005
246.769	-0.0003
247.149	-0.0008
247.528	-0.0023
247.908	-0.0019
248.287	-0.0011
248.666	-0.0003
249.045	-0.0004
249.425	0.0004
249.804	0.0003
250.183	0.0001
250.562	0.0003
250.941	0.0015
251.32	0.0004
251.699	-0.0005
252.078	-0.0006
252.457	-0.0003
252.836	0.0001
253.215	-0.0014
253.594	-0.0015
253.973	-0.0016
254.352	-0.0017
254.731	-0.0001
255.109	-0.0018
255.488	-0.0008
255.867	-0.0012
256.245	-0.0011
256.624	-0.0014
257.002	-0.0014
257.381	-0.0004
257.759	-0.0009
258.138	-0.0016
258.516	-0.0019
258.895	-0.0015
259.273	-0.0012
259.651	-0.0009
260.03	-0.0005
260.408	-0.0004
260.786	0.0001
261.164	0
261.542	-0.0006
261.921	-0.0019
262.299	-0.0021
262.677	-0.0013
263.055	-0.0012
263.433	-0.0015
263.811	-0.0013
264.188	-0
264.566	0.0003
264.944	-0.0012
265.322	-0.0026
265.7	-0.0027
266.077	-0.0012
266.455	-0.0001
266.833	0.001
267.21	0.0008
267.588	0.0002
267.966	-0.0006
268.343	-0.0018
268.721	-0.0017
269.098	-0.0029
269.475	-0.0017
269.853	-0.0004
270.23	0.0009
270.607	0.0011
270.985	-0.0006
271.362	-0.0017
271.739	-0.0025
272.116	-0.0015
272.494	-0.0014
272.871	-0.0009
273.248	-0.0025
273.625	-0.0022
274.002	-0.0022
274.379	-0.0012
274.756	-0.0012
275.132	-0.0007
275.509	-0.0009
275.886	-0.0003
276.263	-0.0008
276.64	-0.001
277.016	-0.0005
277.393	0.0011
277.77	0.0011
278.146	-0.0001
278.523	-0.0025
278.899	-0.0026
279.276	-0.0031
279.652	-0.0019
280.029	-0.0018
280.405	-0.0013
280.782	-0.0027
281.158	-0.0026
281.534	-0.0023
281.91	-0.0009
282.287	-0.0007
282.663	0.0001
283.039	0
283.415	0.0016
283.791	0.0011
284.167	0.0021
284.543	0.0007
284.919	-0.0011
285.295	-0.0026
285.671	-0.0029
286.047	-0.0012
286.423	-0.0007
286.799	-0.0005
287.174	-0.0002
287.55	-0.0004
287.926	-0.0006
288.301	-0.0005
288.677	0.0001
289.053	-0.0004
289.428	-0.0011
289.804	-0.0013
290.179	-0.0002
290.555	-0.0005
290.93	-0.0004
291.305	-0.0004
291.681	0.0002
292.056	0.0008
292.431	0.0018
292.806	0.0016
293.182	0.0006
293.557	-0.0008
293.932	-0.0011
294.307	-0.0003
294.682	-0.0008
295.057	-0.0009
295.432	-0.0027
295.807	-0.0023
296.182	-0.0019
296.557	-0.0002
296.932	0.0005
297.306	0.0015
297.681	0.0007
298.056	0.0003
298.43	-0.0001
298.805	-0.0005
299.18	0.0008
299.554	0.0002
299.929	-0.0001
300.303	-0.0008
300.678	-0.0009
301.052	-0.0001
301.427	-0.0004
301.801	0.0004
302.175	0.0003
302.55	0.0001
302.924	0.0006
303.298	0.0007
303.672	0.001
304.046	-0.0001
304.421	-0.0013
304.795	-0.0021
305.169	-0.0024
305.543	-0.0011
305.917	0
306.291	-0.0003
306.664	-0.0019
307.038	-0.0047
307.412	-0.0028
307.786	-0.0013
308.16	-0.0001
308.533	-0.0014
308.907	-0.0021
309.281	-0.0003
309.654	-0.0004
310.028	-0.0006
310.401	-0.0018
310.775	-0.0013
311.148	-0.0019
311.522	-0.0015
311.895	-0.0019
312.268	-0.0007
312.642	0
313.015	0.001
313.388	0.001
313.761	-0.0009
314.135	-0.0006
314.508	-0.0002
314.881	0.0001
315.254	-0.0026
315.627	-0.0024
316	-0.0012
316.373	-0.0003
316.746	-0.0001
317.118	0.0002
317.491	0.002
317.864	0.0016
318.237	0.0004
318.61	-0.0013
318.982	-0.0018
319.355	-0.0003
319.727	0.0012
320.1	0.0007
320.473	-0.0017
320.845	-0.0021
321.218	-0.001
321.59	0.0005
321.962	-0.0012
322.335	-0.0007
322.707	-0.0017
323.079	0.0006
323.452	-0.0009
323.824	0.0001
324.196	-0.0003
324.568	0
324.94	0.0001
325.312	0.0002
325.684	0.0008
326.056	-0.0001
326.428	-0.0005
326.8	0.0004
327.172	0.0014
327.544	0.0018
327.915	-0.0001
328.287	-0.0006
328.659	-0.0009
329.031	-0.0009
329.402	-0.0013
329.774	-0.0016
330.145	-0.0018
330.517	0.0002
330.888	-0.0015
331.26	0.0006
331.631	-0.0018
332.003	0.0006
332.374	-0.0012
332.745	-0.0002
333.117	-0.0029
333.488	-0.0038
333.859	-0.0045
334.23	-0.0028
334.601	-0.0003
334.972	-0.0015
335.343	0.0002
335.714	-0.0024
336.085	-0.0016
336.456	-0.0026
336.827	-0.0017
337.198	0.0002
337.569	0.0007
337.94	0.0006
338.31	-0.0009
338.681	-0.0028
339.052	-0.0037
339.422	-0.0042
339.793	-0.0031
340.164	-0.0027
340.534	-0.0029
340.905	-0.0036
341.275	-0.0038
341.645	-0.0026
342.016	-0.0025
342.386	-0.002
342.756	-0.0031
343.127	-0.0015
343.497	-0.0029
343.867	-0.0028
344.237	-0.004
344.607	-0.0028
344.977	-0.0026
345.347	-0.0016
345.717	0.0001
346.087	0.001
346.457	0.0019
346.827	-0.0006
347.197	-0.0029
347.567	-0.0042
347.936	-0.0033
348.306	-0.0013
348.676	-0.0018
349.046	-0.0024
349.415	-0.0022
349.785	-0.0026
350.154	-0.0034
350.524	-0.0014
350.893	-0
351.263	0.002
351.632	0.0004
352.001	-0.0017
352.371	-0.0022
352.74	-0.0031
353.109	-0.0016
353.478	-0.0002
353.847	0.0016
354.217	0.0028
354.586	0.0008
354.955	-0.0014
355.324	-0.0034
355.693	-0.0034
356.062	-0.0023
356.43	-0.0007
356.799	-0.0014
357.168	-0.0027
357.537	-0.0027
357.906	-0.0014
358.274	0.0001
358.643	-0.0006
359.011	-0.0006
359.38	-0.0012
359.749	0.0002
360.117	-0.0019
360.486	-0.0026
360.854	-0.0037
361.222	-0.0038
361.591	-0.0045
361.959	-0.0037
362.327	-0.0029
362.695	-0.0018
363.064	-0.0016
363.432	-0.0005
363.8	-0.0002
364.168	-0.0022
364.536	-0.0011
364.904	-0.002
365.272	-0.0019
365.64	-0.0021
366.008	-0.002
366.376	-0.0029
366.743	-0.0052
367.111	-0.0038
367.479	0.0001
367.847	0.0009
368.214	-0.0004
368.582	-0.003
368.949	-0.0031
369.317	-0.0018
369.684	-0.0027
370.052	-0.0033
370.419	-0.0034
370.787	-0.0001
371.154	0.0005
371.521	0.001
371.889	-0.0013
372.256	0.0002
372.623	-0.0024
372.99	-0.0021
373.357	-0.0031
373.724	-0.0019
374.091	-0.0029
374.458	-0.0016
374.825	-0.0009
375.192	0.0005
375.559	-0.0015
375.926	-0.0018
376.293	-0.0018
376.659	-0.0019
377.026	-0.0018
377.393	-0.0015
377.759	-0.0017
378.126	-0.0025
378.492	-0.0051
378.859	-0.0053
379.225	-0.0046
379.592	-0.0031
379.958	-0.0018
380.325	-0.0027
380.691	-0.0024
381.057	-0.0045
381.423	-0.0049
381.79	-0.0061
382.156	-0.0059
382.522	-0.0047
382.888	-0.0031
383.254	-0.0007
383.62	-0.0027
383.986	-0.0034
384.352	-0.003
384.718	-0.0012
385.084	0.0001
385.449	-0.0004
385.815	-0.0004
386.181	-0.0009
386.547	-0.0011
386.912	-0.0012
387.278	-0.0025
387.643	-0.0029
388.009	-0.0034
388.374	-0.0015
388.74	-0.0013
389.105	-0.0002
389.471	0.0001
389.836	-0.0003
390.201	0.0005
390.566	-0.0003
390.932	0.0011
391.297	0.0007
391.662	-0.0002
392.027	-0.0018
392.392	-0.0032
392.757	-0.0046
393.122	-0.0042
393.487	-0.004
393.852	-0.0023
394.217	-0.0031
394.582	-0.0025
394.946	-0.0026
395.311	-0.0002
395.676	0.0001
396.04	-0
396.405	-0.0013
396.77	-0.003
397.134	-0.0022
397.499	-0.0022
397.863	-0.0014
398.227	-0.0029
398.592	-0.0034
398.956	-0.0039
399.32	-0.0031
399.685	-0.0024
400.049	-0.0019
400.413	-0.0012
400.777	-0.0005
401.141	-0.0012
401.505	-0.0006
401.869	-0.0025
402.233	-0.0013
402.597	-0.0031
402.961	-0.003
403.325	-0.0051
403.689	-0.0042
404.053	-0.0022
404.416	-0.0018
404.78	-0.0025
405.144	-0.0032
405.507	-0.002
405.871	-0.0033
406.234	-0.0046
406.598	-0.0057
406.961	-0.0032
407.325	-0.0024
407.688	-0.0026
408.051	-0.0019
408.415	-0.0025
408.778	-0
409.141	-0.0022
409.504	-0.0015
409.867	-0.0019
410.23	-0.0009
410.593	-0.002
410.956	-0.0044
411.319	-0.0046
411.682	-0.0033
412.045	-0.0027
412.408	-0.002
412.771	-0.0039
413.134	-0.002
413.496	-0.0025
413.859	-0.0013
414.222	-0.0016
414.584	-0.0005
414.947	0.0009
415.309	-0.0009
415.672	-0.0033
416.034	-0.0047
416.396	-0.0067
416.759	-0.0042
417.121	-0.004
417.483	-0.0017
417.846	-0.003
418.208	-0.0008
418.57	-0.0014
418.932	-0.0016
419.294	-0.0037
419.656	-0.0011
420.018	-0.0002
420.38	-0
420.742	-0.0013
421.104	-0.0016
421.466	-0.0007
421.827	0.001
422.189	0.0003
422.551	-0
422.912	-0.0023
423.274	-0.0017
423.636	-0.0038
423.997	-0.0042
424.359	-0.0037
424.72	-0.0027
425.081	-0.0036
425.443	-0.0042
425.804	-0.0037
426.165	-0.0017
426.527	-0.0027
426.888	-0.0018
427.249	-0.0008
427.61	0.0014
427.971	-0.0004
428.332	-0.0027
428.693	-0.002
429.054	-0.002
429.415	0.0001
429.776	-0.0025
430.137	-0.0031
430.498	-0.005
430.858	-0.0048
431.219	-0.0028
431.58	0.0001
431.94	0.0006
432.301	0.0003
432.661	-0.0016
433.022	-0.002
433.382	-0.0038
433.743	-0.0055
434.103	-0.0047
434.463	-0.0017
434.824	0.0008
435.184	0.0007
435.544	-0.0021
435.904	-0
436.264	-0.0007
436.624	0.0001
436.985	-0.0018
437.345	-0.0004
437.704	0.0002
438.064	0
438.424	-0.0005
438.784	-0.0004
439.144	-0.0017
439.504	-0.0025
439.863	-0.002
440.223	-0.0011
440.583	-0.0032
440.942	-0.0054
441.302	-0.0042
441.661	-0.0021
442.021	-0.0021
442.38	-0.0031
442.739	-0.0034
443.099	-0.0005
443.458	-0.0024
443.817	-0.0033
444.176	-0.003
444.536	-0.0022
444.895	-0.0022
445.254	-0.0025
445.613	-0.003
445.972	-0.0017
446.331	-0.0038
446.69	-0.0033
447.049	-0.0012
447.407	0.0003
447.766	0.0027
448.125	0.0036
448.484	0.0009
448.842	-0.0004
449.201	-0.0041
449.559	-0.0042
449.918	-0.0038
450.276	-0.0035
450.635	-0.0031
450.993	-0.0069
451.352	-0.0074
451.71	-0.0046
452.068	-0.0021
452.426	0.0002
452.785	-0.0019
453.143	-0.0016
453.501	-0.0018
453.859	-0.0007
454.217	-0.003
454.575	-0.0056
454.933	-0.0061
455.291	-0.0042
455.649	-0.0031
456.006	-0.0017
456.364	-0.0005
456.722	-0.001
457.079	-0.0037
457.437	-0.0057
457.795	-0.0037
458.152	-0.0025
458.51	-0.0012
458.867	-0.0013
459.225	-0.001
459.582	-0.0012
459.939	-0.002
460.297	-0.0026
460.654	-0.0037
461.011	-0.0025
461.368	-0.0013
461.725	0.0004
462.082	-0.0025
462.44	0.0011
462.797	0.0022
463.153	0.0034
463.51	0.0006
463.867	-0.0015
464.224	-0.0029
464.581	-0.0034
464.938	-0.0026
465.294	-0.0031
465.651	-0.0025
466.008	-0.0033
466.364	-0.0002
466.721	-0.0018
467.077	-0.0011
467.434	-0.0047
467.79	-0.0044
468.146	-0.0065
468.503	-0.0045
468.859	-0.0034
469.215	-0.0026
469.571	-0.0012
469.927	0.0001
470.284	0.0033
470.64	0.0021
470.996	0.0009
471.352	-0.0026
471.707	-0.003
472.063	-0.0028
472.419	-0.0018
472.775	-0.0012
473.131	-0.0017
473.486	-0.0018
473.842	-0.0007
474.198	-0.0017
474.553	-0.0009
474.909	-0.0024
475.264	-0.0035
475.62	-0.0032
475.975	-0.0022
476.331	0.0001
476.686	-0.0013
477.041	-0.0025
477.396	-0.0022
477.752	-0.0041
478.107	-0.0039
478.462	-0.0048
478.817	-0.0029
479.172	-0.0025
479.527	-0.0016
479.882	-0.0021
480.237	-0.0008
480.591	-0.0019
480.946	0.0014
481.301	0.0005
481.656	0.0001
482.01	0.0006
482.365	0.0003
482.72	0.0008
483.074	-0.0021
483.429	-0.0032
483.783	-0.0034
484.137	-0.0035
484.492	-0.0044
484.846	-0.0041
485.2	-0.004
485.555	-0.0022
485.909	-0.0011
486.263	-0.0013
486.617	-0.0022
486.971	-0.0028
487.325	0.0002
487.679	0.0003
488.033	-0.0008
488.387	-0.0035
488.741	-0.0027
489.094	-0.0013
489.448	-0.0004
489.802	-0.0007
490.156	-0.0037
490.509	-0.0051
490.863	-0.0052
491.216	-0.0041
491.57	-0.0043
491.923	-0.0041
492.277	-0.0045
492.63	-0.0035
492.983	-0.0052
493.337	-0.0052
493.69	-0.007
494.043	-0.0066
494.396	-0.0042
494.749	-0.0034
495.102	0
495.455	-0.0023
495.808	-0.0024
496.161	-0.0061
496.514	-0.0035
496.867	-0.0013
497.22	0.0015
497.572	-0.0018
497.925	-0.0028
498.278	-0.0033
498.63	-0.0019
498.983	-0.0026
499.335	-0.0033
499.688	-0.0031
500.04	-0.0012
500.393	-0.0026
500.745	-0.004
501.097	-0.0057
501.449	-0.0025
501.802	0.0014
502.154	-0.0006
502.506	-0.0026
502.858	-0.0068
503.21	-0.0063
503.562	-0.0045
503.914	-0.0016
504.266	0
504.618	-0.0018
504.969	-0.0017
505.321	-0.0026
505.673	-0.0031
506.025	-0.0023
506.376	-0.0018
506.728	-0.002
507.079	-0.004
507.431	-0.0051
507.782	-0.0053
508.134	-0.0064
508.485	-0.0047
508.836	-0.0034
509.188	-0.0013
509.539	-0.0024
509.89	-0.0031
510.241	-0.0053
510.592	-0.0041
510.943	-0.0047
511.294	-0.0022
511.645	-0.0031
511.996	-0.0016
512.347	-0.0046
512.698	-0.0038
513.049	-0.0044
513.399	-0.0027
513.75	-0.0052
514.101	-0.006
514.451	-0.0066
514.802	-0.0044
515.152	-0.0024
515.503	-0.0035
515.853	-0.0032
516.203	-0.0036
516.554	-0.0038
516.904	-0.0054
517.254	-0.0067
517.604	-0.0054
517.955	-0.0045
518.305	-0.003
518.655	-0.0028
519.005	-0.0046
519.355	-0.0054
519.705	-0.0077
520.055	-0.0064
520.404	-0.0083
520.754	-0.006
521.104	-0.007
521.454	-0.004
521.803	-0.0046
522.153	-0.0028
522.502	-0.0047
522.852	-0.0043
523.201	-0.0034
523.551	-0.0028
523.9	-0.0021
524.249	-0.003
524.599	-0.0057
524.948	-0.0068
525.297	-0.0065
525.646	-0.0046
525.995	-0.0053
526.344	-0.0054
526.694	-0.0044
527.042	-0.0054
527.391	-0.0089
527.74	-0.0117
528.089	-0.0107
528.438	-0.0092
528.787	-0.0048
529.135	-0.0041
529.484	-0.0053
529.833	-0.0081
530.181	-0.0093
530.53	-0.0076
530.878	-0.0064
531.227	-0.0058
531.575	-0.0033
531.923	-0.0039
532.271	-0.0024
532.62	-0.0033
532.968	-0.0031
533.316	-0.0034
533.664	-0.0036
534.012	-0.0052
534.36	-0.0064
534.708	-0.0091
535.056	-0.0097
535.404	-0.0062
535.752	-0.001
536.1	0.0008
536.447	-0.0008
536.795	-0.0029
537.143	-0.0023
537.49	-0.0008
537.838	-0.0022
538.185	-0.0047
538.533	-0.0066
538.88	-0.0053
539.228	-0.0028
539.575	-0.0036
539.922	-0.0051
540.269	-0.0038
540.617	-0.0035
540.964	-0.0021
541.311	-0.0024
541.658	-0.002
542.005	-0.0016
542.352	-0.0027
542.699	-0.0051
543.045	-0.0064
543.392	-0.0063
543.739	-0.0037
544.086	-0.0061
544.432	-0.0071
544.779	-0.0079
545.126	-0.0055
545.472	-0.0039
545.819	-0.0026
546.165	-0.0052
546.512	-0.0084
546.858	-0.0086
547.204	-0.0075
547.55	-0.0058
547.897	-0.0055
548.243	-0.0054
548.589	-0.0051
548.935	-0.0064
549.281	-0.0073
549.627	-0.0067
549.973	-0.0073
550.319	-0.0053
550.665	-0.0049
551.01	-0.0044
551.356	-0.0048
551.702	-0.0072
552.048	-0.0084
552.393	-0.0071
552.739	-0.0071
553.084	-0.0053
553.43	-0.0066
553.775	-0.003
554.12	-0.0035
554.466	-0.0016
554.811	-0.004
555.156	-0.0044
555.502	-0.0053
555.847	-0.0046
556.192	-0.0063
556.537	-0.0075
556.882	-0.0079
557.227	-0.0082
557.572	-0.0054
557.917	-0.004
558.261	-0.0027
558.606	-0.0038
558.951	-0.0044
559.295	-0.0027
559.64	-0.0031
559.985	-0.0064
560.329	-0.0072
560.674	-0.0044
561.018	-0.0023
561.363	-0.0047
561.707	-0.0096
562.051	-0.0092
562.395	-0.0081
562.74	-0.0036
563.084	-0.0046
563.428	-0.0029
563.772	-0.004
564.116	-0.0032
564.46	-0.0025
564.804	-0.0032
565.148	-0.0042
565.492	-0.0055
565.835	-0.0029
566.179	0.0007
566.523	-0.0009
566.866	-0.0057
567.21	-0.0083
567.554	-0.0096
567.897	-0.0041
568.24	-0.0064
568.584	-0.0054
568.927	-0.0104
569.271	-0.0086
569.614	-0.0094
569.957	-0.0074
570.3	-0.0069
570.643	-0.006
570.986	-0.0069
571.329	-0.008
571.672	-0.0056
572.015	-0.0049
572.358	-0.0038
572.701	-0.005
573.044	-0.0068
573.387	-0.0055
573.729	-0.0049
574.072	-0.0057
574.414	-0.0075
574.757	-0.006
575.099	-0.0075
575.442	-0.0075
575.784	-0.0095
576.127	-0.0061
576.469	-0.0055
576.811	-0.0056
577.153	-0.0063
577.496	-0.0054
577.838	-0.0068
578.18	-0.0079
578.522	-0.0105
578.864	-0.0122
579.206	-0.0101
579.548	-0.0089
579.889	-0.0069
580.231	-0.0028
580.573	-0.0011
580.915	-0.0038
581.256	-0.0098
581.598	-0.0121
581.939	-0.013
582.281	-0.0072
582.622	-0.0079
582.964	-0.0066
583.305	-0.0084
583.646	-0.0092
583.988	-0.0036
584.329	-0.0041
584.67	-0.0045
585.011	-0.0094
585.352	-0.0117
585.693	-0.0095
586.034	-0.0084
586.375	-0.0089
586.716	-0.01
587.057	-0.006
587.398	-0.002
587.738	-0.0017
588.079	-0.0048
588.42	-0.006
588.76	-0.0079
589.101	-0.0073
589.441	-0.0067
589.782	-0.0051
590.122	-0.0032
590.463	-0.0032
590.803	-0.0051
591.143	-0.0062
591.483	-0.0086
591.823	-0.0073
592.164	-0.0108
592.504	-0.0096
592.844	-0.0113
593.184	-0.0084
593.523	-0.0082
593.863	-0.0082
594.203	-0.007
594.543	-0.0047
594.883	-0.0059
595.222	-0.005
595.562	-0.0034
595.901	-0.0035
596.241	-0.0067
596.58	-0.0117
596.92	-0.0122
597.259	-0.0127
597.599	-0.0105
597.938	-0.0083
598.277	-0.008
598.616	-0.0077
598.955	-0.007
599.295	-0.0047
599.634	-0.0047
599.973	-0.0056
600.312	-0.0053
600.65	-0.0065
600.989	-0.0065
601.328	-0.0048
601.667	-0.0018
602.005	-0.0069
602.344	-0.0103
602.683	-0.0121
603.021	-0.0075
603.36	-0.0084
603.698	-0.009
604.037	-0.0108
604.375	-0.0085
604.713	-0.0094
605.052	-0.0094
605.39	-0.0088
605.728	-0.0092
606.066	-0.0074
606.404	-0.0109
606.742	-0.0113
607.08	-0.0098
607.418	-0.0092
607.756	-0.0069
608.094	-0.0077
608.431	-0.0067
608.769	-0.0057
609.107	-0.0076
609.444	-0.0061
609.782	-0.0089
610.12	-0.0058
610.457	-0.0075
610.794	-0.0078
611.132	-0.0099
611.469	-0.01
611.806	-0.0093
612.144	-0.011
612.481	-0.0067
612.818	-0.0043
613.155	-0.0033
613.492	-0.0057
613.829	-0.0039
614.166	-0.0044
614.503	-0.0038
614.84	-0.0071
615.176	-0.0049
615.513	-0.0045
615.85	-0.0036
616.187	-0.0018
616.523	-0.003
616.86	-0.0064
617.196	-0.0096
617.533	-0.0068
617.869	-0.0061
618.205	-0.0064
618.542	-0.0093
618.878	-0.0107
619.214	-0.0093
619.55	-0.0105
619.886	-0.0066
620.222	-0.0094
620.558	-0.0086
620.894	-0.0097
621.23	-0.009
621.566	-0.0085
621.902	-0.0106
622.238	-0.0105
622.573	-0.0096
622.909	-0.0117
623.244	-0.0136
623.58	-0.0154
623.916	-0.0123
624.251	-0.0097
624.586	-0.0089
624.922	-0.0074
625.257	-0.0108
625.592	-0.009
625.927	-0.009
626.263	-0.0082
626.598	-0.0107
626.933	-0.0124
627.268	-0.008
627.603	-0.0072
627.938	-0.0104
628.272	-0.0112
628.607	-0.013
628.942	-0.0079
629.277	-0.0114
629.611	-0.0117
629.946	-0.0127
630.281	-0.0089
630.615	-0.0083
630.949	-0.0087
631.284	-0.0089
631.618	-0.0028
631.953	-0.002
632.287	-0.0042
632.621	-0.011
632.955	-0.0128
633.289	-0.0122
633.623	-0.01
633.957	-0.0025
634.291	-0.0046
634.625	-0.0024
634.959	-0.0109
635.293	-0.0063
635.627	-0.0059
635.96	-0.0028
636.294	-0.0067
636.627	-0.0066
636.961	-0.0025
637.294	-0.0015
637.628	-0.0004
637.961	-0.0047
638.295	-0.0071
638.628	-0.0088
638.961	-0.0105
639.294	-0.0056
639.628	-0.0075
639.961	-0.0073
640.294	-0.0144
640.627	-0.0137
640.96	-0.0159
641.293	-0.0114
641.625	-0.0111
641.958	-0.0093
642.291	-0.0133
642.624	-0.0131
642.956	-0.0124
643.289	-0.007
643.621	-0.0104
643.954	-0.0118
644.286	-0.0129
644.619	-0.0088
644.951	-0.0111
645.283	-0.0118
645.616	-0.0182
645.948	-0.0174
646.28	-0.0168
646.612	-0.0154
646.944	-0.0136
647.276	-0.0156
647.608	-0.0165
647.94	-0.0145
648.272	-0.0132
648.603	-0.0083
648.935	-0.0096
649.267	-0.0034
649.598	-0.0032
649.93	-0.0037
650.261	-0.0092
650.593	-0.0106
650.924	-0.0084
651.256	-0.0082
651.587	-0.0094
651.918	-0.0098
652.25	-0.0117
652.581	-0.0143
652.912	-0.0142
653.243	-0.014
653.574	-0.0096
653.905	-0.0094
654.236	-0.0097
654.567	-0.0102
654.897	-0.0134
655.228	-0.0135
655.559	-0.0115
655.89	-0.0068
656.22	-0.0001
656.551	-0.0066
656.881	-0.0094
657.212	-0.0157
657.542	-0.0127
657.872	-0.0142
658.203	-0.0133
658.533	0.0053
658.863	0.0047
659.193	-0.0058
659.523	-0.0118
659.853	-0.0231
660.183	-0.0134
660.513	-0.0149
660.843	-0.0156
661.173	-0.0144
661.503	-0.01
661.833	-0.0093
662.162	-0.0109
662.492	-0.0093
662.822	-0.0105
663.151	-0.009
663.481	-0.0108
663.81	-0.0102
664.139	-0.0109
664.469	-0.0034
664.798	0.0022
665.127	0.0018
665.456	-0.0066
665.785	-0.0103
666.114	-0.0118
666.443	-0.011
666.772	-0.0137
667.101	-0.0145
667.43	-0.0195
667.759	-0.0134
668.088	-0.0155
668.416	-0.0116
668.745	-0.0114
669.074	-0.0077
669.402	-0.008
669.731	-0.014
670.059	-0.0154
670.388	-0.013
670.716	-0.013
671.044	-0.014
671.372	-0.0156
671.701	-0.0097
672.029	-0.0043
672.357	-0.0033
672.685	-0.0034
673.013	-0.0074
673.341	-0.0063
673.669	-0.0133
673.996	-0.0113
674.324	-0.0074
674.652	-0.002
674.98	-0.0031
675.307	-0.0062
675.635	-0.0064
675.962	-0.0063
676.29	-0.0059
676.617	-0.0107
676.945	-0.0086
677.272	-0.0168
677.599	-0.0142
677.926	-0.0175
678.253	-0.0087
678.581	-0.012
678.908	-0.0124
679.235	-0.0151
679.561	-0.0133
679.888	-0.0144
680.215	-0.0123
680.542	-0.0149
680.869	-0.011
681.195	-0.013
681.522	-0.0081
681.849	-0.0065
682.175	-0.0096
682.502	-0.0102
682.828	-0.0128
683.154	-0.0077
683.481	-0.0086
683.807	-0.0091
684.133	-0.0109
684.459	-0.0125
684.785	-0.0118
685.111	-0.0116
685.437	-0.0099
685.763	-0.0133
686.089	-0.0126
686.415	-0.0114
686.741	-0.0058
687.067	-0.0054
687.392	-0.0078
687.718	-0.0105
688.043	-0.0096
688.369	-0.0097
688.694	-0.0071
689.02	-0.0099
689.345	-0.0126
689.67	-0.0138
689.996	-0.0144
690.321	-0.0081
690.646	-0.011
690.971	-0.0111
691.296	-0.015
691.621	-0.0113
691.946	-0.0109
692.271	-0.0125
692.596	-0.014
692.921	-0.0115
693.245	-0.0071
693.57	-0.0087
693.895	-0.0092
694.219	-0.0112
694.544	-0.0085
694.868	-0.0086
695.193	-0.0098
695.517	-0.013
695.841	-0.0168
696.166	-0.0133
696.49	-0.0097
696.814	-0.0039
697.138	-0.0066
697.462	-0.0048
697.786	-0.0075
698.11	-0.0027
698.434	-0.0079
698.758	-0.012
699.081	-0.016
699.405	-0.0133
699.729	-0.0061
700.052	-0.0081
700.376	-0.0127
700.7	-0.015
701.023	-0.0137
701.346	-0.0088
701.67	-0.0076
701.993	-0.0063
702.316	-0.0106
702.639	-0.012
702.963	-0.0165
703.286	-0.0163
703.609	-0.0119
703.932	-0.0109
704.255	-0.0091
704.578	-0.0148
704.9	-0.0145
705.223	-0.0136
705.546	-0.0118
705.868	-0.0098
706.191	-0.0121
706.514	-0.0162
706.836	-0.0177
707.159	-0.0131
707.481	-0.0092
707.803	-0.0092
708.126	-0.0113
708.448	-0.0092
708.77	-0.0073
709.092	-0.0113
709.414	-0.0111
709.736	-0.0114
710.058	-0.0089
710.38	-0.0092
710.702	-0.0121
711.024	-0.0128
711.345	-0.014
711.667	-0.0106
711.989	-0.0088
712.31	-0.0096
712.632	-0.0121
712.953	-0.0149
713.275	-0.0136
713.596	-0.0099
713.917	-0.0075
714.239	-0.009
714.56	-0.0122
714.881	-0.0115
715.202	-0.0098
715.523	-0.0084
715.844	-0.0072
716.165	-0.0085
716.486	-0.0063
716.807	-0.0138
717.128	-0.0129
717.448	-0.0125
717.769	-0.0088
718.09	-0.0099
718.41	-0.0112
718.731	-0.0122
719.051	-0.0128
719.372	-0.0137
719.692	-0.0106
720.012	-0.0063
720.332	-0.0098
720.653	-0.0107
720.973	-0.015
721.293	-0.019
721.613	-0.0196
721.933	-0.0205
722.253	-0.0126
722.573	-0.0121
722.892	-0.0139
723.212	-0.0145
723.532	-0.0141
723.851	-0.0144
724.171	-0.0149
724.491	-0.0148
724.81	-0.0119
725.129	-0.015
725.449	-0.0163
725.768	-0.0142
726.087	-0.0108
726.407	-0.011
726.726	-0.0125
727.045	-0.015
727.364	-0.0134
727.683	-0.0142
728.002	-0.0122
728.321	-0.0119
728.64	-0.0102
728.958	-0.0091
729.277	-0.0082
729.596	-0.0086
729.914	-0.0122
730.233	-0.013
730.551	-0.0129
730.87	-0.0114
731.188	-0.0085
731.507	-0.0066
731.825	-0.0042
732.143	-0.0082
732.461	-0.0064
732.779	-0.008
733.097	-0.008
733.415	-0.0087
733.733	-0.0107
734.051	-0.0117
734.369	-0.0142
734.687	-0.0154
735.005	-0.0162
735.322	-0.0142
735.64	-0.0088
735.957	-0.0044
736.275	-0.0053
736.592	-0.0066
736.91	-0.0117
737.227	-0.0085
737.544	-0.0084
737.862	-0.0027
738.179	-0.008
738.496	-0.0049
738.813	-0.0099
739.13	-0.0059
739.447	-0.0126
739.764	-0.0094
740.081	-0.0138
740.398	-0.0136
740.714	-0.0161
741.031	-0.0162
741.348	-0.0135
741.664	-0.0118
741.981	-0.0057
742.297	-0.0076
742.614	-0.0071
742.93	-0.0146
743.246	-0.0122
743.563	-0.0171
743.879	-0.0148
744.195	-0.0193
744.511	-0.0153
744.827	-0.0114
745.143	-0.0059
745.459	-0.0043
745.775	-0.0074
746.091	-0.0159
746.406	-0.0221
746.722	-0.0198
747.038	-0.0138
747.353	-0.007
747.669	-0.0159
747.984	-0.0151
748.3	-0.0163
748.615	-0.0105
748.93	-0.0063
749.246	-0.0077
749.561	-0.0099
749.876	-0.0163
750.191	-0.0158
750.506	-0.0143
750.821	-0.0118
751.136	-0.0173
751.451	-0.0178
751.766	-0.0174
752.08	-0.0134
752.395	-0.0099
752.71	-0.0104
753.024	-0.0093
753.339	-0.0124
753.653	-0.0178
753.968	-0.0175
754.282	-0.0173
754.596	-0.0108
754.911	-0.0091
755.225	-0.0067
755.539	-0.0113
755.853	-0.0184
756.167	-0.0214
756.481	-0.0164
756.795	-0.0175
757.109	-0.0172
757.423	-0.0177
757.736	-0.0157
758.05	-0.0159
758.364	-0.0157
758.677	-0.0107
758.991	-0.0086
759.304	-0.0111
759.618	-0.0084
759.931	-0.0085
760.244	-0.0063
760.558	-0.0109
760.871	-0.0118
761.184	-0.0136
761.497	-0.0147
761.81	-0.0157
762.123	-0.0124
762.436	-0.0085
762.749	-0.0059
763.062	-0.0081
763.374	-0.0106
763.687	-0.014
764	-0.0122
764.312	-0.0097
764.625	-0.0085
764.937	-0.0097
765.25	-0.0136
765.562	-0.0127
765.874	-0.0148
766.186	-0.0171
766.499	-0.0161
766.811	-0.0139
767.123	-0.0085
767.435	-0.0078
767.747	-0.0073
768.059	-0.0101
768.37	-0.0094
768.682	-0.0157
768.994	-0.0144
769.306	-0.0162
769.617	-0.0133
769.929	-0.015
770.24	-0.0123
770.552	-0.0098
770.863	-0.0084
771.174	-0.016
771.486	-0.0145
771.797	-0.0116
772.108	-0.0077
772.419	-0.0061
772.73	-0.0083
773.041	-0.0123
773.352	-0.012
773.663	-0.0127
773.974	-0.0095
774.285	-0.0182
774.595	-0.0199
774.906	-0.0171
775.217	-0.011
775.527	-0.0108
775.838	-0.0129
776.148	-0.0158
776.458	-0.0117
776.769	-0.0121
777.079	-0.0096
777.389	-0.0125
777.699	-0.0108
778.009	-0.0107
778.319	-0.0057
778.629	-0.0069
778.939	-0.0051
779.249	-0.0086
779.559	-0.0096
779.869	-0.0134
780.178	-0.0186
780.488	-0.0194
780.798	-0.0169
781.107	-0.0173
781.417	-0.0134
781.726	-0.015
782.035	-0.0104
782.345	-0.0082
782.654	-0.0068
782.963	-0.009
783.272	-0.0144
783.581	-0.012
783.89	-0.0165
784.199	-0.0131
784.508	-0.0158
784.817	-0.0123
785.126	-0.0145
785.434	-0.0122
785.743	-0.0127
786.052	-0.0111
786.36	-0.0108
786.669	-0.0101
786.977	-0.0113
787.285	-0.0137
787.594	-0.0134
787.902	-0.0146
788.21	-0.0165
788.518	-0.0145
788.826	-0.0087
789.135	-0.0057
789.442	-0.008
789.75	-0.0144
790.058	-0.0158
790.366	-0.0225
790.674	-0.0231
790.981	-0.0231
791.289	-0.0151
791.597	-0.0129
791.904	-0.0113
792.212	-0.0123
792.519	-0.0121
792.826	-0.0126
793.134	-0.0046
793.441	-0.0058
793.748	-0.01
794.055	-0.0151
794.362	-0.0149
794.669	-0.0137
794.976	-0.0108
795.283	-0.0097
795.59	-0.0017
795.897	-0.0086
796.203	-0.0031
796.51	-0.003
796.817	-0.0031
797.123	-0.0077
797.43	-0.0138
797.736	-0.0118
798.042	-0.0165
798.349	-0.0165
798.655	-0.018
798.961	-0.0172
799.267	-0.0186
799.573	-0.0187
799.879	-0.0099
800.185	-0.0016
800.491	-0.0024
800.797	-0.0158
801.103	-0.019
801.408	-0.0173
801.714	-0.0137
802.02	-0.0152
802.325	-0.0165
802.631	-0.0151
802.936	-0.0215
803.242	-0.0274
803.547	-0.0227
803.852	-0.0139
804.157	-0.0053
804.462	-0.0059
804.768	-0.0088
805.073	-0.0112
805.378	-0.012
805.682	-0.0124
805.987	-0.0131
806.292	-0.0092
806.597	-0.002
806.902	-0.0014
807.206	-0.0033
807.511	-0.009
807.815	-0.0051
808.12	-0.0047
808.424	-0.0057
808.728	-0.0101
809.033	-0.0098
809.337	-0.0072
809.641	-0.009
809.945	-0.0158
810.249	-0.018
810.553	-0.0127
810.857	-0.008
811.161	-0.0136
811.465	-0.0169
811.768	-0.0228
812.072	-0.016
812.376	-0.016
812.679	-0.0078
812.983	-0.012
813.286	-0.0184
813.59	-0.0232
813.893	-0.0215
814.196	-0.0162
814.499	-0.0171
814.803	-0.0192
815.106	-0.0148
815.409	-0.0138
815.712	-0.0103
816.015	-0.0148
816.318	-0.0124
816.62	-0.0069
816.923	-0.0055
817.226	-0.0046
817.528	-0.0041
817.831	-0.0105
818.133	-0.0136
818.436	-0.0206
818.738	-0.0143
819.041	-0.0085
819.343	-0.0085
819.645	-0.0096
819.947	-0.0092
820.249	-0.0058
820.551	-0.0068
820.853	-0.0115
821.155	-0.0218
821.457	-0.023
821.759	-0.0112
822.061	-0.0101
822.362	-0.0099
822.664	-0.0186
822.966	-0.0165
823.267	-0.0105
823.569	-0.0117
823.87	-0.0065
824.171	-0.0187
824.473	-0.0191
824.774	-0.0231
825.075	-0.0087
825.376	-0.0096
825.677	-0.0106
825.978	-0.0218
826.279	-0.0197
826.58	-0.0246
826.881	-0.0227
827.181	-0.02
827.482	-0.007
827.783	0.0015
828.083	-0.0085
828.384	-0.0193
828.684	-0.0207
828.985	-0.0209
829.285	-0.018
829.585	-0.0188
829.885	-0.0124
830.185	-0.0123
830.486	-0.0065
830.786	-0.0067
831.086	-0.0118
831.385	-0.014
831.685	-0.0148
831.985	-0.01
832.285	-0.0157
832.585	-0.0191
832.884	-0.0199
833.184	-0.0264
833.483	-0.0254
833.783	-0.0171
834.082	-0.0199
834.381	-0.0207
834.681	-0.0282
834.98	-0.0168
835.279	-0.0134
835.578	-0.0115
835.877	-0.0111
836.176	-0.0128
836.475	-0.0122
836.774	-0.0205
837.072	-0.0139
837.371	-0.0157
837.67	-0.0114
837.968	-0.0171
838.267	-0.0168
838.565	-0.017
838.864	-0.0122
839.162	-0.0205
839.46	-0.0215
839.759	-0.0255
840.057	-0.0242
840.355	-0.0179
840.653	-0.0181
840.951	-0.0201
841.249	-0.0279
841.547	-0.0225
841.845	-0.0082
842.142	-0.0203
842.44	-0.0334
842.738	-0.0442
843.035	-0.0327
843.333	-0.0318
843.63	-0.0284
843.928	-0.0214
844.225	-0.0137
844.522	-0.0144
844.82	-0.0287
845.117	-0.0315
845.414	-0.0279
845.711	-0.0246
846.008	-0.0263
846.305	-0.0264
846.602	-0.0133
846.898	-0.0034
847.195	-0.0057
847.492	-0.0096
847.788	-0.0289
848.085	-0.0351
848.382	-0.0368
848.678	-0.0258
848.974	-0.015
849.271	-0.0183
849.567	-0.0338
849.863	-0.0315
850.159	-0.0267
850.455	-0.0102
850.751	-0.0059
851.047	-0.01
851.343	-0.01
851.639	-0.0225
851.935	-0.0136
852.23	-0.0229
852.526	-0.0256
852.822	-0.0306
853.117	-0.0198
853.413	-0.0145
853.708	-0.0189
854.003	-0.0142
854.299	-0.0095
854.594	-0.0216
854.889	-0.0388
855.184	-0.0458
855.479	-0.0369
855.774	-0.0247
856.069	-0.0182
856.364	-0.0161
856.659	-0.0124
856.954	-0.013
857.248	-0.0071
857.543	-0.016
857.837	-0.012
858.132	-0.006
858.426	0.0062
858.721	0.0105
859.015	0.0048
859.309	-0.0003
859.604	-0.0229
859.898	-0.0199
860.192	-0.0229
860.486	-0.0074
860.78	0.0029
861.074	0.0007
861.367	-0.0034
861.661	-0.0134
861.955	-0.0161
862.248	-0.0035
862.542	-0.0104
862.836	-0.0001
863.129	-0.0003
863.422	-0.0028
863.716	-0.0171
864.009	-0.0381
864.302	-0.0351
864.595	-0.0225
864.889	-0.006
865.182	-0.0111
865.475	-0.0291
865.767	-0.0426
866.06	-0.0334
866.353	-0.001
866.646	0.0049
866.938	-0.008
867.231	-0.0123
867.524	-0.0165
867.816	-0.0144
868.109	-0.0394
868.401	-0.0388
868.693	-0.024
868.985	-0.0108
869.278	-0.0084
869.57	0.0026
869.862	-0.0172
870.154	-0.0212
870.446	-0.025
870.738	-0.0099
871.029	-0.0099
871.321	-0.0282
871.613	-0.0283
871.904	-0.0324
872.196	-0.0389
872.487	-0.0224
872.779	-0.0223
873.07	-0.0196
873.362	-0.029
873.653	-0.0237
873.944	-0.0216
874.235	-0.0254
874.526	-0.0067
874.817	0.0115
875.108	-0.0008
875.399	-0.0322
875.69	-0.0592
875.981	-0.0694
876.271	-0.0545
876.562	-0.0578
876.853	-0.0359
877.143	-0.0378
877.434	-0.0429
877.724	-0.0532
878.014	-0.0445
878.305	-0.0313
878.595	-0.0424
878.885	-0.0346
879.175	-0.0303
879.465	0.0026
879.755	-0.0243
880.045	-0.0402
880.335	-0.0765
880.624	-0.077
880.914	-0.077
