Data from DIblank2_080217_1b_Absorbance_17-31-54-284.txt Node
Date: Wed Aug 02 17:31:54 MDT 2017
User: Tank Lab
Spectrometer: FLMS01220
Trigger mode: 0
Integration Time (sec): 1.000000E-1
Scans to average: 10
Electric dark correction enabled: true
Nonlinearity correction enabled: false
Boxcar width: 1
XAxis mode: Wavelengths
Number of Pixels in Spectrum: 2048
>>>>>Begin Spectral Data<<<<<
179.47	-0
179.856	-0
180.241	-1.6679
180.626	-0.69
181.011	-0.1639
181.396	-0
181.781	-0.785
182.166	-0
182.551	-0
182.936	-1.0555
183.321	-0
183.706	0.6272
184.091	-0
184.476	-0.9061
184.86	-0
185.245	-0
185.63	-0.7142
186.015	-0
186.399	-0
186.784	-0.4092
187.169	-0
187.553	-0
187.938	0.1265
188.322	-0.0595
188.707	0.004
189.091	-0.0015
189.475	-0.0167
189.86	-0.0384
190.244	-0.0351
190.629	-0.0028
191.013	0.0036
191.397	-0.0115
191.781	-0.015
192.165	-0.0139
192.55	-0.0136
192.934	-0.0122
193.318	-0.0096
193.702	-0.0005
194.086	-0.0045
194.47	-0.0021
194.854	-0.0025
195.238	0.0032
195.622	0.0011
196.006	0.0049
196.389	0.0069
196.773	0.0058
197.157	0.0037
197.541	-0.0027
197.924	-0.0063
198.308	-0.0086
198.692	-0.001
199.075	0.0016
199.459	0.0011
199.843	-0.0049
200.226	-0.0046
200.61	-0.0038
200.993	-0.0061
201.376	-0.0062
201.76	-0.0041
202.143	-0.0026
202.527	-0.0014
202.91	0.0013
203.293	0.002
203.676	0.0034
204.059	0.0004
204.443	0.0018
204.826	0.0014
205.209	-0.0006
205.592	-0.0029
205.975	-0.0065
206.358	-0.0078
206.741	-0.0044
207.124	-0.0019
207.507	0.0014
207.89	-0.0002
208.273	-0.002
208.655	-0.0023
209.038	-0.0011
209.421	0.0023
209.804	0.0028
210.186	0.0019
210.569	0
210.951	-0.0005
211.334	-0.0014
211.717	-0.0011
212.099	-0.0038
212.482	-0.0022
212.864	-0.0015
213.246	-0.0007
213.629	-0.0018
214.011	-0.002
214.393	-0.002
214.776	-0.0012
215.158	-0.0011
215.54	0.001
215.922	-0.0023
216.305	-0.0015
216.687	-0.0024
217.069	0.0004
217.451	0.0006
217.833	0.0009
218.215	0.0016
218.597	0.0026
218.979	0.0033
219.361	0.0024
219.742	-0.0006
220.124	-0.0022
220.506	-0.003
220.888	-0.0028
221.27	-0.0033
221.651	-0.0036
222.033	-0.0004
222.415	0.0019
222.796	0.002
223.178	-0.0013
223.559	-0.0013
223.941	-0.001
224.322	0.0003
224.704	-0.0008
225.085	-0.0001
225.466	-0.0003
225.848	0.001
226.229	0.0016
226.61	0.0008
226.992	-0.0003
227.373	-0.0021
227.754	-0.0029
228.135	-0.0028
228.516	-0.0013
228.897	0.0012
229.278	0.0001
229.659	-0.0013
230.04	-0.0031
230.421	-0.0031
230.802	-0.0007
231.183	0.0006
231.564	0.0018
231.944	-0.0005
232.325	-0.0005
232.706	0.0013
233.087	0.0025
233.467	0.0028
233.848	0.0017
234.229	0.001
234.609	-0.0006
234.99	-0.0021
235.37	-0.0026
235.751	-0.0015
236.131	-0.0011
236.511	0.0005
236.892	0.0007
237.272	-0.0014
237.652	-0.0018
238.033	-0.0023
238.413	-0
238.793	-0.0003
239.173	0.0015
239.553	0.0013
239.933	0.0013
240.313	0.0003
240.694	0.0008
241.074	0.0003
241.453	-0.0003
241.833	0.0011
242.213	0.0026
242.593	0.0018
242.973	0.0006
243.353	0.0001
243.732	0.0022
244.112	0.0006
244.492	0
244.872	-0.0022
245.251	0.0007
245.631	0.0006
246.01	0.0015
246.39	-0.0009
246.769	-0.0005
247.149	-0.0001
247.528	0.0014
247.908	0.002
248.287	0.0018
248.666	0.0006
249.045	-0.0004
249.425	-0.001
249.804	0.0001
250.183	0.0007
250.562	0.0011
250.941	0.0008
251.32	-0.0003
251.699	-0.0004
252.078	-0.0002
252.457	0.0005
252.836	0.0002
253.215	-0.0018
253.594	-0.0008
253.973	-0.0008
254.352	0.0007
254.731	-0.0011
255.109	-0.0014
255.488	-0.0027
255.867	-0.0021
256.245	-0.0018
256.624	-0.0007
257.002	-0.0003
257.381	0.0014
257.759	0.0018
258.138	0.0021
258.516	0.0002
258.895	-0.0001
259.273	-0.001
259.651	0.0016
260.03	0.0009
260.408	0.002
260.786	-0.0004
261.164	-0.0003
261.542	-0.0016
261.921	-0.0009
262.299	0
262.677	0.001
263.055	0.0014
263.433	0.0018
263.811	-0.0001
264.188	-0.0011
264.566	-0.0006
264.944	-0.0001
265.322	0.0016
265.7	0.0005
266.077	0.0016
266.455	-0.0011
266.833	-0.0019
267.21	-0.0022
267.588	-0.0006
267.966	-0.0008
268.343	-0.0001
268.721	-0.0009
269.098	-0.0001
269.475	-0.001
269.853	-0.0007
270.23	-0.0021
270.607	-0.0013
270.985	-0.0019
271.362	-0.0008
271.739	-0.0017
272.116	-0.0005
272.494	-0.0002
272.871	0.0002
273.248	-0.0005
273.625	-0.0005
274.002	-0.0001
274.379	0.0002
274.756	-0.0016
275.132	-0.002
275.509	-0.0031
275.886	-0.0015
276.263	-0.0018
276.64	-0.002
277.016	-0.0036
277.393	-0.0037
277.77	-0.0021
278.146	-0.0007
278.523	0.0004
278.899	-0.0001
279.276	-0.0002
279.652	-0.0014
280.029	-0.0015
280.405	-0.0014
280.782	-0.0013
281.158	-0.0005
281.534	-0.0003
281.91	0.0007
282.287	0.0001
282.663	0.0007
283.039	-0.0001
283.415	0.0004
283.791	0.0004
284.167	0.0004
284.543	0.0002
284.919	-0.0009
285.295	-0.0005
285.671	-0.0011
286.047	-0.0019
286.423	-0.0022
286.799	-0.0016
287.174	0.0008
287.55	0.0001
287.926	0
288.301	-0.0009
288.677	0.0011
289.053	0.0013
289.428	0.0006
289.804	-0.0005
290.179	-0.0023
290.555	-0.0018
290.93	-0.0019
291.305	-0.0007
291.681	-0.001
292.056	-0.0017
292.431	-0.0007
292.806	-0.0001
293.182	0.0009
293.557	0.0004
293.932	0.0002
294.307	-0.0002
294.682	-0.0006
295.057	-0.0003
295.432	-0.0002
295.807	-0.0009
296.182	-0.0007
296.557	-0.0005
296.932	0.0004
297.306	0.0004
297.681	0.0009
298.056	0.0015
298.43	0.0009
298.805	0.0005
299.18	-0.0002
299.554	-0.0004
299.929	-0.001
300.303	-0.0009
300.678	-0
301.052	0.0016
301.427	0.0009
301.801	0.0013
302.175	0.0002
302.55	0.0012
302.924	0.0004
303.298	0.0003
303.672	-0.0002
304.046	-0.002
304.421	-0.0023
304.795	-0.0008
305.169	0.0019
305.543	0.0034
305.917	0.0018
306.291	0.0015
306.664	0.0008
307.038	0.0014
307.412	-0.0004
307.786	0.0001
308.16	0.0007
308.533	0.0009
308.907	0.0004
309.281	-0.0015
309.654	-0.0002
310.028	-0.0004
310.401	0.0009
310.775	0.0015
311.148	0.0019
311.522	0.0011
311.895	-0.0001
312.268	-0.0018
312.642	-0.0019
313.015	-0.0017
313.388	0.0007
313.761	0.0001
314.135	0.0007
314.508	-0.0006
314.881	0.001
315.254	0.0001
315.627	-0.0003
316	-0.0018
316.373	-0.0006
316.746	-0.001
317.118	-0.0003
317.491	-0.0007
317.864	0.002
318.237	0.0029
318.61	0.0027
318.982	0.0024
319.355	0.0016
319.727	0.0019
320.1	0.0002
320.473	0.0007
320.845	0.001
321.218	0.002
321.59	0.0015
321.962	-0.0007
322.335	-0.0025
322.707	-0.003
323.079	-0.0013
323.452	0.0012
323.824	0.0016
324.196	0.0012
324.568	-0.0019
324.94	-0.0018
325.312	-0.0009
325.684	0.0012
326.056	0.0001
326.428	0.0003
326.8	0.0011
327.172	0.0036
327.544	0.0019
327.915	0.0002
328.287	0.0003
328.659	-0.0006
329.031	-0.0002
329.402	-0.0015
329.774	-0.0004
330.145	-0.0005
330.517	-0.0014
330.888	-0.0006
331.26	-0.0006
331.631	-0.0007
332.003	-0.001
332.374	-0.0017
332.745	0.0004
333.117	-0.0004
333.488	-0.0001
333.859	-0.001
334.23	-0.0003
334.601	0.0002
334.972	0.0005
335.343	-0.0001
335.714	-0.0002
336.085	-0.0007
336.456	0.0007
336.827	0.0002
337.198	0.0005
337.569	-0.0015
337.94	-0.0019
338.31	-0.003
338.681	-0.0021
339.052	-0.0015
339.422	0.0007
339.793	0.0006
340.164	0.0011
340.534	0.0002
340.905	-0.0003
341.275	0.0002
341.645	0.0002
342.016	-0.0011
342.386	-0.0021
342.756	-0.0017
343.127	0
343.497	0.0017
343.867	0.0013
344.237	0.0006
344.607	-0.0008
344.977	-0.0004
345.347	-0.0015
345.717	-0.0032
346.087	-0.0035
346.457	-0.0018
346.827	-0.0008
347.197	-0.0015
347.567	-0.0005
347.936	0.0003
348.306	-0.0002
348.676	-0.0007
349.046	-0.0027
349.415	-0.0019
349.785	-0.0035
350.154	-0.0021
350.524	-0.0029
350.893	-0.0039
351.263	-0.0044
351.632	-0.0038
352.001	-0.0016
352.371	-0.002
352.74	-0.0009
353.109	-0.0012
353.478	-0.0005
353.847	-0.0017
354.217	-0.0019
354.586	-0.0021
354.955	-0.0022
355.324	-0.0012
355.693	-0.0015
356.062	-0.0012
356.43	-0.0027
356.799	-0.0007
357.168	-0.0011
357.537	-0.0013
357.906	-0.0024
358.274	-0.0009
358.643	-0.0009
359.011	-0.001
359.38	-0.0012
359.749	-0.0001
360.117	0.0005
360.486	0.0014
360.854	0.0016
361.222	0.0006
361.591	-0
361.959	-0.0009
362.327	-0.0002
362.695	-0.0006
363.064	-0.0022
363.432	-0.0016
363.8	-0.0018
364.168	0.0009
364.536	0.0001
364.904	0.0007
365.272	-0.0009
365.64	-0.0004
366.008	-0.0026
366.376	-0.0014
366.743	-0.0032
367.111	-0.0025
367.479	-0.0042
367.847	-0.0026
368.214	-0.002
368.582	-0.0011
368.949	-0.0036
369.317	-0.0022
369.684	-0.0019
370.052	-0.0002
370.419	-0.0019
370.787	-0.0004
371.154	-0.0001
371.521	-0.0006
371.889	-0.0032
372.256	-0.0047
372.623	-0.0055
372.99	-0.0055
373.357	-0.0041
373.724	-0.0022
374.091	0.0003
374.458	-0.0003
374.825	-0.0008
375.192	-0.0013
375.559	-0.0021
375.926	-0.0031
376.293	-0.0045
376.659	-0.0051
377.026	-0.0047
377.393	-0.0046
377.759	-0.0022
378.126	-0.0024
378.492	-0.0032
378.859	-0.0035
379.225	-0.0027
379.592	-0.0021
379.958	-0.003
380.325	-0.0051
380.691	-0.0038
381.057	-0.0038
381.423	-0.0026
381.79	-0.0046
382.156	-0.0067
382.522	-0.0061
382.888	-0.0031
383.254	-0.0004
383.62	0.0004
383.986	-0.0007
384.352	-0.002
384.718	-0.0042
385.084	-0.0042
385.449	-0.0047
385.815	-0.0031
386.181	-0.0041
386.547	-0.0032
386.912	-0.0069
387.278	-0.0061
387.643	-0.0047
388.009	-0
388.374	-0.0021
388.74	-0.0005
389.105	-0.0036
389.471	-0.0008
389.836	-0.0031
390.201	-0.0022
390.566	-0.0028
390.932	-0.0025
391.297	-0.0011
391.662	-0.0029
392.027	-0.0023
392.392	-0.0034
392.757	-0.0023
393.122	-0.004
393.487	-0.0019
393.852	-0.0014
394.217	-0.002
394.582	-0.0025
394.946	-0.0015
395.311	0.0001
395.676	0.0002
396.04	-0.0029
396.405	-0.0046
396.77	-0.0051
397.134	-0.003
397.499	-0.001
397.863	-0.002
398.227	-0.0027
398.592	-0.0029
398.956	-0.0027
399.32	-0.0023
399.685	-0.0028
400.049	-0.0033
400.413	-0.0043
400.777	-0.0038
401.141	-0.0021
401.505	-0.0016
401.869	-0.0022
402.233	-0.0046
402.597	-0.0047
402.961	-0.0029
403.325	-0.0005
403.689	0.0015
404.053	0.0018
404.416	0.0001
404.78	-0.0009
405.144	-0.0023
405.507	-0.0016
405.871	-0.0035
406.234	-0.0039
406.598	-0.0033
406.961	-0.0019
407.325	-0.0027
407.688	-0.0025
408.051	-0.0024
408.415	-0.0019
408.778	-0.0037
409.141	-0.0036
409.504	-0.0032
409.867	-0.0016
410.23	-0.0009
410.593	-0.0012
410.956	-0.0026
411.319	-0.0063
411.682	-0.0069
412.045	-0.0082
412.408	-0.006
412.771	-0.0044
413.134	-0.0034
413.496	-0.0053
413.859	-0.0053
414.222	-0.0032
414.584	0.0004
414.947	-0.0001
415.309	-0.001
415.672	-0.002
416.034	-0.0016
416.396	-0.0018
416.759	-0.0018
417.121	-0.003
417.483	-0.0009
417.846	-0.0031
418.208	-0.0026
418.57	-0.0035
418.932	-0.002
419.294	-0.0036
419.656	-0.0051
420.018	-0.0052
420.38	-0.0028
420.742	-0.0028
421.104	-0.0015
421.466	-0.0021
421.827	-0.0003
422.189	-0.0015
422.551	-0.0004
422.912	-0.0033
423.274	-0.0037
423.636	-0.0069
423.997	-0.0039
424.359	-0.0011
424.72	0.0017
425.081	0.0025
425.443	0.0001
425.804	-0.0002
426.165	-0.0033
426.527	-0.0009
426.888	-0.0023
427.249	0.0003
427.61	0.0003
427.971	0.0018
428.332	-0.0014
428.693	-0.0019
429.054	-0.0045
429.415	-0.0024
429.776	-0.0024
430.137	-0.0004
430.498	0.0003
430.858	-0.0012
431.219	-0.0003
431.58	-0.0008
431.94	-0.0003
432.301	-0.0004
432.661	-0.0025
433.022	-0.0029
433.382	-0.0024
433.743	0.0004
434.103	-0.0007
434.463	-0.003
434.824	-0.0039
435.184	-0.0019
435.544	-0.0012
435.904	-0.0011
436.264	-0.0034
436.624	-0.001
436.985	-0.0042
437.345	-0.0029
437.704	-0.0041
438.064	-0.0045
438.424	-0.0039
438.784	-0.0046
439.144	-0.0004
439.504	0.0003
439.863	-0.0009
440.223	-0.002
440.583	-0.0016
440.942	-0.0012
441.302	-0.002
441.661	-0.0051
442.021	-0.005
442.38	-0.0046
442.739	-0.0012
443.099	-0.0007
443.458	0.0005
443.817	0.0005
444.176	0.0022
444.536	0.0012
444.895	-0.0024
445.254	-0.0035
445.613	-0.0037
445.972	-0.0029
446.331	-0.0054
446.69	-0.0058
447.049	-0.0051
447.407	-0.004
447.766	-0.0018
448.125	-0.0003
448.484	-0.0012
448.842	-0.0017
449.201	-0.0031
449.559	-0.0016
449.918	-0.0037
450.276	-0.0031
450.635	-0.0035
450.993	-0.0041
451.352	-0.0053
451.71	-0.0048
452.068	-0.0049
452.426	-0.0026
452.785	-0.0011
453.143	-0.0008
453.501	-0.0015
453.859	-0.0052
454.217	-0.0041
454.575	-0.0063
454.933	-0.0029
455.291	-0.0022
455.649	-0.0009
456.006	-0.0016
456.364	-0
456.722	-0.0005
457.079	-0.0004
457.437	0
457.795	0.0004
458.152	0.0011
458.51	-0.0008
458.867	-0.0017
459.225	-0.0037
459.582	-0.0036
459.939	-0.0035
460.297	-0.0033
460.654	-0.0053
461.011	-0.0065
461.368	-0.0076
461.725	-0.0065
462.082	-0.0053
462.44	-0.0052
462.797	-0.0055
463.153	-0.0055
463.51	-0.0029
463.867	-0.0052
464.224	-0.0046
464.581	-0.0044
464.938	-0.0018
465.294	-0.0032
465.651	-0.004
466.008	-0.004
466.364	-0.0019
466.721	0.0011
467.077	0.0007
467.434	-0.0007
467.79	-0.0051
468.146	-0.0037
468.503	-0.0008
468.859	0.0002
469.215	-0.0023
469.571	-0.0052
469.927	-0.0037
470.284	-0.0023
470.64	-0.0021
470.996	-0.0052
471.352	-0.0042
471.707	-0.0045
472.063	-0.0041
472.419	-0.0033
472.775	-0.0041
473.131	-0.0036
473.486	-0.0079
473.842	-0.0065
474.198	-0.0058
474.553	-0.0019
474.909	-0.0028
475.264	-0.0037
475.62	-0.0047
475.975	-0.0029
476.331	-0.0019
476.686	-0.0004
477.041	0.002
477.396	-0.0001
477.752	0.0021
478.107	-0.0005
478.462	0.0012
478.817	-0.0019
479.172	-0.0044
479.527	-0.0043
479.882	-0.0055
480.237	-0.001
480.591	-0.0011
480.946	0.0002
481.301	-0.0025
481.656	-0.002
482.01	-0.0001
482.365	0.0014
482.72	0.0001
483.074	-0.0008
483.429	-0.0008
483.783	-0.0018
484.137	-0.003
484.492	-0.005
484.846	-0.0016
485.2	-0.0025
485.555	-0.0018
485.909	-0.0031
486.263	-0.0026
486.617	-0.0042
486.971	-0.0039
487.325	-0.0022
487.679	0.0012
488.033	-0.0015
488.387	-0.0008
488.741	-0.0007
489.094	-0.0018
489.448	-0.0041
489.802	-0.0036
490.156	-0.0025
490.509	-0.004
490.863	-0.006
491.216	-0.0027
491.57	-0.0012
491.923	-0.0006
492.277	-0.0016
492.63	-0.001
492.983	-0.0026
493.337	-0.0031
493.69	-0.002
494.043	-0.0016
494.396	-0.0018
494.749	-0.0026
495.102	-0.0027
495.455	-0.0048
495.808	-0.0054
496.161	-0.0029
496.514	0.0008
496.867	0.0004
497.22	-0.0022
497.572	-0.0039
497.925	-0.0042
498.278	-0.0038
498.63	-0.0052
498.983	-0.0016
499.335	-0.0025
499.688	-0.0018
500.04	-0.0034
500.393	-0.0021
500.745	-0.0027
501.097	-0.0035
501.449	-0.0043
501.802	-0.0036
502.154	-0.0038
502.506	-0.0033
502.858	-0.0054
503.21	-0.0042
503.562	-0.0045
503.914	-0.0002
504.266	-0.0008
504.618	-0.0012
504.969	-0.0008
505.321	-0.0023
505.673	-0.0032
506.025	-0.0079
506.376	-0.007
506.728	-0.0095
507.079	-0.0076
507.431	-0.0082
507.782	-0.0059
508.134	-0.0066
508.485	-0.0072
508.836	-0.0071
509.188	-0.0058
509.539	-0.0027
509.89	-0.0015
510.241	-0.0025
510.592	-0.0037
510.943	-0.0026
511.294	-0.0021
511.645	-0.001
511.996	-0.0023
512.347	-0.0023
512.698	-0.0069
513.049	-0.008
513.399	-0.0078
513.75	-0.0069
514.101	-0.007
514.451	-0.0059
514.802	-0.0051
515.152	-0.0045
515.503	-0.0042
515.853	-0.0033
516.203	-0.0034
516.554	-0.0053
516.904	-0.0053
517.254	-0.0058
517.604	-0.0047
517.955	-0.0047
518.305	-0.0012
518.655	-0.0017
519.005	-0.0016
519.355	-0.0033
519.705	-0.0026
520.055	-0.0027
520.404	-0.0045
520.754	-0.0068
521.104	-0.0082
521.454	-0.0077
521.803	-0.0079
522.153	-0.0068
522.502	-0.0073
522.852	-0.0082
523.201	-0.0075
523.551	-0.0061
523.9	-0.0047
524.249	-0.0028
524.599	-0.0038
524.948	-0.0032
525.297	-0.0071
525.646	-0.0061
525.995	-0.0091
526.344	-0.0074
526.694	-0.0062
527.042	-0.0026
527.391	-0.0031
527.74	-0.0054
528.089	-0.0062
528.438	-0.0036
528.787	-0.0022
529.135	-0.0039
529.484	-0.0085
529.833	-0.0074
530.181	-0.0062
530.53	-0.0054
530.878	-0.0068
531.227	-0.0051
531.575	-0.0038
531.923	-0.0046
532.271	-0.0054
532.62	-0.0068
532.968	-0.0052
533.316	-0.0046
533.664	-0.0051
534.012	-0.0071
534.36	-0.009
534.708	-0.007
535.056	-0.0065
535.404	-0.0064
535.752	-0.0061
536.1	-0.0056
536.447	-0.0052
536.795	-0.0043
537.143	-0.0037
537.49	-0.0019
537.838	-0.0034
538.185	-0.0057
538.533	-0.0103
538.88	-0.0121
539.228	-0.0109
539.575	-0.0087
539.922	-0.0057
540.269	-0.004
540.617	-0.002
540.964	-0.0039
541.311	-0.0051
541.658	-0.0063
542.005	-0.0055
542.352	-0.0091
542.699	-0.0078
543.045	-0.0086
543.392	-0.0048
543.739	-0.0063
544.086	-0.0052
544.432	-0.0065
544.779	-0.0054
545.126	-0.0049
545.472	-0.004
545.819	-0.0045
546.165	-0.005
546.512	-0.0055
546.858	-0.004
547.204	-0.0045
547.55	-0.0015
547.897	-0.0022
548.243	-0.002
548.589	-0.0035
548.935	-0.0063
549.281	-0.0054
549.627	-0.0046
549.973	-0.0036
550.319	-0.0054
550.665	-0.0069
551.01	-0.009
551.356	-0.01
551.702	-0.0098
552.048	-0.0087
552.393	-0.0059
552.739	-0.0069
553.084	-0.003
553.43	-0.0049
553.775	-0.0079
554.12	-0.0105
554.466	-0.0109
554.811	-0.0074
555.156	-0.0079
555.502	-0.0092
555.847	-0.009
556.192	-0.01
556.537	-0.0085
556.882	-0.0097
557.227	-0.0079
557.572	-0.0086
557.917	-0.0064
558.261	-0.0053
558.606	-0.0063
558.951	-0.0099
559.295	-0.0114
559.64	-0.009
559.985	-0.0073
560.329	-0.0094
560.674	-0.0089
561.018	-0.0065
561.363	-0.0055
561.707	-0.0068
562.051	-0.0072
562.395	-0.0036
562.74	-0.0045
563.084	-0.0047
563.428	-0.0073
563.772	-0.0054
564.116	-0.0084
564.46	-0.0093
564.804	-0.0081
565.148	-0.0063
565.492	-0.0035
565.835	-0.005
566.179	-0.0046
566.523	-0.0053
566.866	-0.0057
567.21	-0.0072
567.554	-0.0092
567.897	-0.0087
568.24	-0.0098
568.584	-0.0079
568.927	-0.0094
569.271	-0.0071
569.614	-0.0075
569.957	-0.0055
570.3	-0.0032
570.643	-0.0014
570.986	-0.0023
571.329	-0.0042
571.672	-0.0067
572.015	-0.0095
572.358	-0.0088
572.701	-0.0062
573.044	-0.0043
573.387	-0.0078
573.729	-0.0081
574.072	-0.0074
574.414	-0.0053
574.757	-0.0052
575.099	-0.008
575.442	-0.0097
575.784	-0.0083
576.127	-0.0041
576.469	-0.0034
576.811	-0.0074
577.153	-0.0086
577.496	-0.0067
577.838	-0.0036
578.18	-0.0049
578.522	-0.0074
578.864	-0.01
579.206	-0.005
579.548	-0.0025
579.889	-0.0039
580.231	-0.0069
580.573	-0.0041
580.915	-0.0037
581.256	-0.0079
581.598	-0.0105
581.939	-0.0131
582.281	-0.0062
582.622	-0.0083
582.964	-0.0067
583.305	-0.0085
583.646	-0.0077
583.988	-0.0018
584.329	0.001
584.67	-0.0038
585.011	-0.0073
585.352	-0.0133
585.693	-0.0097
586.034	-0.0112
586.375	-0.0127
586.716	-0.0109
587.057	-0.0116
587.398	-0.0079
587.738	-0.0055
588.079	-0.0081
588.42	-0.0103
588.76	-0.0136
589.101	-0.0122
589.441	-0.0102
589.782	-0.0096
590.122	-0.0036
590.463	-0.0028
590.803	-0.0063
591.143	-0.0091
591.483	-0.0092
591.823	-0.0082
592.164	-0.0097
592.504	-0.0086
592.844	-0.0071
593.184	-0.0065
593.523	-0.0069
593.863	-0.0066
594.203	-0.0052
594.543	-0.0019
594.883	-0.0042
595.222	-0.0049
595.562	-0.0029
595.901	-0.0019
596.241	-0.0044
596.58	-0.0088
596.92	-0.0091
597.259	-0.0115
597.599	-0.0108
597.938	-0.008
598.277	-0.004
598.616	-0.0081
598.955	-0.01
599.295	-0.009
599.634	-0.0064
599.973	-0.0041
600.312	-0.0089
600.65	-0.0101
600.989	-0.0154
601.328	-0.01
601.667	-0.0011
602.005	-0.002
602.344	-0.0059
602.683	-0.0089
603.021	-0.0067
603.36	-0.008
603.698	-0.0107
604.037	-0.0111
604.375	-0.0113
604.713	-0.0145
605.052	-0.0174
605.39	-0.0126
605.728	-0.0094
606.066	0.0009
606.404	-0.0005
606.742	-0.0041
607.08	-0.0058
607.418	-0.0086
607.756	-0.0057
608.094	-0.0058
608.431	-0.0048
608.769	-0.0039
609.107	-0.0109
609.444	-0.0092
609.782	-0.0116
610.12	-0.005
610.457	-0.0051
610.794	-0.0076
611.132	-0.0101
611.469	-0.0117
611.806	-0.0113
612.144	-0.017
612.481	-0.0145
612.818	-0.0077
613.155	-0.0021
613.492	-0.0029
613.829	-0.0079
614.166	-0.008
614.503	-0.0073
614.84	-0.009
615.176	-0.0088
615.513	-0.0076
615.85	-0.0046
616.187	-0.0046
616.523	-0.0075
616.86	-0.0064
617.196	-0.0045
617.533	-0.0009
617.869	-0.0059
618.205	-0.0076
618.542	-0.008
618.878	-0.0073
619.214	-0.0059
619.55	-0.01
619.886	-0.0082
620.222	-0.0134
620.558	-0.0123
620.894	-0.0147
621.23	-0.0147
621.566	-0.0136
621.902	-0.0102
622.238	-0.0098
622.573	-0.0067
622.909	-0.0083
623.244	-0.0097
623.58	-0.0169
623.916	-0.0194
624.251	-0.0121
624.586	-0.0046
624.922	-0.0013
625.257	-0.0079
625.592	-0.0148
625.927	-0.0139
626.263	-0.011
626.598	-0.008
626.933	-0.0094
627.268	-0.0087
627.603	-0.0056
627.938	-0.0109
628.272	-0.0096
628.607	-0.0113
628.942	-0.0072
629.277	-0.0082
629.611	-0.012
629.946	-0.0149
630.281	-0.0203
630.615	-0.0209
630.949	-0.018
631.284	-0.0125
631.618	-0.0062
631.953	-0.0045
632.287	-0.0062
632.621	-0.0105
632.955	-0.0119
633.289	-0.0096
633.623	-0.0111
633.957	-0.0119
634.291	-0.0132
634.625	-0.0106
634.959	-0.0129
635.293	-0.0122
635.627	-0.0107
635.96	-0.0071
636.294	-0.0102
636.627	-0.0122
636.961	-0.0111
637.294	-0.0059
637.628	-0.0057
637.961	-0.0093
638.295	-0.0133
638.628	-0.0139
638.961	-0.0109
639.294	-0.0085
639.628	-0.0101
639.961	-0.0122
640.294	-0.0175
640.627	-0.0159
640.96	-0.0125
641.293	-0.0133
641.625	-0.0104
641.958	-0.0159
642.291	-0.0069
642.624	-0.0085
642.956	-0.0059
643.289	-0.0086
643.621	-0.0088
643.954	-0.0102
644.286	-0.0109
644.619	-0.0149
644.951	-0.0122
645.283	-0.0136
645.616	-0.0086
645.948	-0.0059
646.28	-0.0047
646.612	-0.0064
646.944	-0.0082
647.276	-0.0099
647.608	-0.0134
647.94	-0.0164
648.272	-0.0172
648.603	-0.016
648.935	-0.014
649.267	-0.0138
649.598	-0.009
649.93	-0.0112
650.261	-0.0099
650.593	-0.0124
650.924	-0.009
651.256	-0.0085
651.587	-0.0048
651.918	-0.0073
652.25	-0.0085
652.581	-0.0151
652.912	-0.013
653.243	-0.0123
653.574	-0.0083
653.905	-0.0106
654.236	-0.0109
654.567	-0.0074
654.897	-0.0073
655.228	-0.0073
655.559	-0.0093
655.89	-0.0077
656.22	-0.0106
656.551	-0.0134
656.881	-0.0137
657.212	-0.0101
657.542	-0.004
657.872	-0.0073
658.203	-0.0097
658.533	0.0014
658.863	0.015
659.193	-0.0057
659.523	-0.0117
659.853	-0.0317
660.183	-0.0179
660.513	-0.016
660.843	-0.0103
661.173	-0.0104
661.503	-0.0058
661.833	-0.0106
662.162	-0.0097
662.492	-0.0101
662.822	-0.0079
663.151	-0.0114
663.481	-0.0156
663.81	-0.016
664.139	-0.014
664.469	-0.012
664.798	-0.0133
665.127	-0.0118
665.456	-0.0109
665.785	-0.0031
666.114	-0.0038
666.443	-0.0033
666.772	-0.009
667.101	-0.0073
667.43	-0.0094
667.759	-0.006
668.088	-0.0106
668.416	-0.0136
668.745	-0.0176
669.074	-0.0144
669.402	-0.0154
669.731	-0.0169
670.059	-0.0136
670.388	-0.0092
670.716	-0.0059
671.044	-0.0066
671.372	-0.0052
671.701	-0.0044
672.029	-0.0074
672.357	-0.0096
672.685	-0.0105
673.013	-0.0128
673.341	-0.0141
673.669	-0.0152
673.996	-0.0142
674.324	-0.0055
674.652	-0.0069
674.98	-0.01
675.307	-0.0189
675.635	-0.0185
675.962	-0.0141
676.29	-0.009
676.617	-0.0117
676.945	-0.0149
677.272	-0.016
677.599	-0.0159
677.926	-0.0084
678.253	-0.0085
678.581	-0.0119
678.908	-0.0212
679.235	-0.02
679.561	-0.0134
679.888	-0.0146
680.215	-0.014
680.542	-0.0137
680.869	-0.0098
681.195	-0.015
681.522	-0.0139
681.849	-0.0166
682.175	-0.0114
682.502	-0.0167
682.828	-0.0177
683.154	-0.0214
683.481	-0.0166
683.807	-0.0139
684.133	-0.0092
684.459	-0.0089
684.785	-0.0072
685.111	-0.0074
685.437	-0.0095
685.763	-0.0085
686.089	-0.0112
686.415	-0.008
686.741	-0.0074
687.067	-0.0026
687.392	-0.0043
687.718	-0.005
688.043	-0.0108
688.369	-0.011
688.694	-0.0086
689.02	-0.0098
689.345	-0.0091
689.67	-0.0123
689.996	-0.0064
690.321	-0.0065
690.646	-0.0053
690.971	-0.0061
691.296	-0.0138
691.621	-0.0179
691.946	-0.0184
692.271	-0.0113
692.596	-0.0023
692.921	-0.0071
693.245	-0.0111
693.57	-0.0171
693.895	-0.0136
694.219	-0.0131
694.544	-0.0137
694.868	-0.0149
695.193	-0.0133
695.517	-0.0087
695.841	-0.0105
696.166	-0.0091
696.49	-0.0139
696.814	-0.0093
697.138	-0.0118
697.462	-0.0091
697.786	-0.0104
698.11	-0.0034
698.434	-0.0053
698.758	-0.0105
699.081	-0.0144
699.405	-0.015
699.729	-0.0057
700.052	-0.0003
700.376	-0.0029
700.7	-0.0034
701.023	-0.009
701.346	-0.0076
701.67	-0.0115
701.993	-0.0084
702.316	-0.0118
702.639	-0.0117
702.963	-0.0093
703.286	-0.0084
703.609	-0.0087
703.932	-0.0143
704.255	-0.0107
704.578	-0.0153
704.9	-0.0162
705.223	-0.0181
705.546	-0.0133
705.868	-0.0125
706.191	-0.0148
706.514	-0.016
706.836	-0.0153
707.159	-0.0112
707.481	-0.0107
707.803	-0.0115
708.126	-0.0148
708.448	-0.0164
708.77	-0.02
709.092	-0.0167
709.414	-0.0098
709.736	-0.005
710.058	-0.0038
710.38	-0.0081
710.702	-0.0072
711.024	-0.0145
711.345	-0.0157
711.667	-0.0223
711.989	-0.0186
712.31	-0.0178
712.632	-0.0129
712.953	-0.0077
713.275	-0.0089
713.596	-0.0057
713.917	-0.0098
714.239	-0.0055
714.56	-0.0079
714.881	-0.0085
715.202	-0.0141
715.523	-0.0147
715.844	-0.0115
716.165	-0.0113
716.486	-0.0121
716.807	-0.0125
717.128	-0.0085
717.448	-0.0069
717.769	-0.0071
718.09	-0.0129
718.41	-0.0194
718.731	-0.0217
719.051	-0.0198
719.372	-0.0131
719.692	-0.0117
720.012	-0.0067
720.332	-0.0115
720.653	-0.0113
720.973	-0.0114
721.293	-0.0081
721.613	-0.0089
721.933	-0.0122
722.253	-0.0111
722.573	-0.0098
722.892	-0.0083
723.212	-0.0107
723.532	-0.0074
723.851	-0.0063
724.171	-0.0118
724.491	-0.013
724.81	-0.0111
725.129	-0.0071
725.449	-0.0106
725.768	-0.0176
726.087	-0.0118
726.407	-0.0091
726.726	-0.0064
727.045	-0.0077
727.364	-0.0072
727.683	-0.0073
728.002	-0.0139
728.321	-0.0184
728.64	-0.0162
728.958	-0.0156
729.277	-0.0118
729.596	-0.0148
729.914	-0.0108
730.233	-0.0147
730.551	-0.011
730.87	-0.0093
731.188	-0.0057
731.507	-0.0064
731.825	-0.0099
732.143	-0.0107
732.461	-0.0112
732.779	-0.0103
733.097	-0.0126
733.415	-0.0114
733.733	-0.0086
734.051	-0.0083
734.369	-0.0092
734.687	-0.0112
735.005	-0.0108
735.322	-0.0123
735.64	-0.0129
735.957	-0.0135
736.275	-0.0148
736.592	-0.0164
736.91	-0.0135
737.227	-0.0105
737.544	-0.009
737.862	-0.0127
738.179	-0.0135
738.496	-0.0125
738.813	-0.0097
739.13	-0.0123
739.447	-0.0152
739.764	-0.0173
740.081	-0.0166
740.398	-0.0179
740.714	-0.0205
741.031	-0.0231
741.348	-0.0192
741.664	-0.0128
741.981	-0.0059
742.297	-0.0065
742.614	-0.0114
742.93	-0.0151
743.246	-0.0167
743.563	-0.0136
743.879	-0.0126
744.195	-0.0126
744.511	-0.0148
744.827	-0.0143
745.143	-0.0141
745.459	-0.0073
745.775	-0.0114
746.091	-0.0109
746.406	-0.0187
746.722	-0.0102
747.038	-0.0098
747.353	-0.0077
747.669	-0.0151
747.984	-0.0107
748.3	-0.0054
748.615	-0.0027
748.93	-0.0096
749.246	-0.0164
749.561	-0.0181
749.876	-0.0155
750.191	-0.0094
750.506	-0.0091
750.821	-0.0101
751.136	-0.0162
751.451	-0.0143
751.766	-0.0166
752.08	-0.0139
752.395	-0.0139
752.71	-0.0123
753.024	-0.0122
753.339	-0.0135
753.653	-0.0164
753.968	-0.0138
754.282	-0.018
754.596	-0.0154
754.911	-0.0169
755.225	-0.0149
755.539	-0.0183
755.853	-0.0227
756.167	-0.023
756.481	-0.0148
756.795	-0.0061
757.109	-0.006
757.423	-0.012
757.736	-0.0216
758.05	-0.0214
758.364	-0.0163
758.677	-0.0131
758.991	-0.0101
759.304	-0.0127
759.618	-0.0117
759.931	-0.0137
760.244	-0.0117
760.558	-0.0096
760.871	-0.0081
761.184	-0.0122
761.497	-0.0181
761.81	-0.0211
762.123	-0.0168
762.436	-0.0151
762.749	-0.0142
763.062	-0.0117
763.374	-0.0087
763.687	-0.0043
764	-0.0056
764.312	-0.0049
764.625	-0.0089
764.937	-0.0141
765.25	-0.0169
765.562	-0.0138
765.874	-0.0057
766.186	-0.0047
766.499	-0.0049
766.811	-0.0122
767.123	-0.0117
767.435	-0.0127
767.747	-0.0094
768.059	-0.0098
768.37	-0.01
768.682	-0.01
768.994	-0.0146
769.306	-0.0189
769.617	-0.0199
769.929	-0.0138
770.24	-0.0106
770.552	-0.0118
770.863	-0.0148
771.174	-0.013
771.486	-0.0117
771.797	-0.0132
772.108	-0.0189
772.419	-0.0197
772.73	-0.0165
773.041	-0.0109
773.352	-0.0141
773.663	-0.0113
773.974	-0.0117
774.285	-0.0095
774.595	-0.0143
774.906	-0.0113
775.217	-0.0138
775.527	-0.0109
775.838	-0.012
776.148	-0.0111
776.458	-0.016
776.769	-0.0173
777.079	-0.0188
777.389	-0.0187
777.699	-0.0202
778.009	-0.0156
778.319	-0.012
778.629	-0.0053
778.939	-0.0047
779.249	-0.0002
779.559	-0.0075
779.869	-0.0085
780.178	-0.018
780.488	-0.0184
780.798	-0.0203
781.107	-0.0151
781.417	-0.0168
781.726	-0.015
782.035	-0.0161
782.345	-0.0145
782.654	-0.0155
782.963	-0.0182
783.272	-0.0171
783.581	-0.0123
783.89	-0.005
784.199	0.0001
784.508	-0.0071
784.817	-0.0107
785.126	-0.0163
785.434	-0.0129
785.743	-0.0153
786.052	-0.0167
786.36	-0.0181
786.669	-0.0177
786.977	-0.0207
787.285	-0.0186
787.594	-0.0151
787.902	-0.0109
788.21	-0.013
788.518	-0.0167
788.826	-0.0216
789.135	-0.0254
789.442	-0.0256
789.75	-0.0235
790.058	-0.0189
790.366	-0.0207
790.674	-0.0212
790.981	-0.0199
791.289	-0.0142
791.597	-0.0078
791.904	-0.0108
792.212	-0.0151
792.519	-0.0206
792.826	-0.0181
793.134	-0.0136
793.441	-0.0117
793.748	-0.0115
794.055	-0.0134
794.362	-0.018
794.669	-0.0145
794.976	-0.0149
795.283	-0.0059
795.59	-0.0077
795.897	-0.0053
796.203	-0.0103
796.51	-0.012
796.817	-0.0053
797.123	-0.0099
797.43	-0.015
797.736	-0.0277
798.042	-0.0266
798.349	-0.0258
798.655	-0.0213
798.961	-0.0199
799.267	-0.0155
799.573	-0.0147
799.879	-0.0158
800.185	-0.0141
800.491	-0.0096
800.797	-0.012
801.103	-0.0177
801.408	-0.0216
801.714	-0.0133
802.02	-0.0071
802.325	-0.0059
802.631	-0.0114
802.936	-0.0133
803.242	-0.008
803.547	-0.0109
803.852	-0.0121
804.157	-0.017
804.462	-0.0119
804.768	-0.0092
805.073	-0.0084
805.378	-0.013
805.682	-0.0113
805.987	-0.0148
806.292	-0.0085
806.597	-0.0156
806.902	-0.0055
807.206	-0.0154
807.511	-0.0138
807.815	-0.0197
808.12	-0.0254
808.424	-0.0196
808.728	-0.0252
809.033	-0.0065
809.337	-0.0129
809.641	-0.0115
809.945	-0.018
810.249	-0.02
810.553	-0.022
810.857	-0.0309
811.161	-0.0263
811.465	-0.0278
811.768	-0.0226
812.072	-0.0244
812.376	-0.0198
812.679	-0.0168
812.983	-0.014
813.286	-0.0194
813.59	-0.0114
813.893	-0.0072
814.196	-0.0018
814.499	-0.01
814.803	-0.0156
815.106	-0.0133
815.409	-0.009
815.712	-0.0078
816.015	-0.0139
816.318	-0.0084
816.62	-0.0099
816.923	-0.0021
817.226	-0.0102
817.528	-0.0073
817.831	-0.0139
818.133	-0.0131
818.436	-0.0246
818.738	-0.0232
819.041	-0.0274
819.343	-0.0174
819.645	-0.015
819.947	-0.0108
820.249	-0.0143
820.551	-0.0125
820.853	-0.0188
821.155	-0.0077
821.457	-0.0174
821.759	-0.0112
822.061	-0.0209
822.362	-0.026
822.664	-0.0217
822.966	-0.0194
823.267	-0.0019
823.569	-0.0029
823.87	-0.0013
824.171	-0.0127
824.473	-0.0207
824.774	-0.0256
825.075	-0.0186
825.376	-0.0138
825.677	-0.0092
825.978	-0.0117
826.279	-0.0137
826.58	-0.0223
826.881	-0.0213
827.181	-0.0142
827.482	-0.0089
827.783	-0.0093
828.083	-0.0135
828.384	-0.0144
828.684	-0.0117
828.985	-0.0127
829.285	-0.0124
829.585	-0.015
829.885	-0.0136
830.185	-0.0097
830.486	-0.0134
830.786	-0.0173
831.086	-0.0198
831.385	-0.0201
831.685	-0.0143
831.985	-0.0093
832.285	-0.0064
832.585	-0.0086
832.884	-0.0074
833.184	-0.011
833.483	-0.01
833.783	-0.0134
834.082	-0.008
834.381	-0.0161
834.681	-0.0252
834.98	-0.025
835.279	-0.0228
835.578	-0.0195
835.877	-0.0273
836.176	-0.033
836.475	-0.0265
836.774	-0.0273
837.072	-0.0204
837.371	-0.0243
837.67	-0.0143
837.968	-0.012
838.267	-0.0076
838.565	-0.0117
838.864	-0.0102
839.162	-0.0181
839.46	-0.0263
839.759	-0.0261
840.057	-0.0238
840.355	-0.0121
840.653	-0.0132
840.951	-0.0275
841.249	-0.0251
841.547	-0.0255
841.845	-0.019
842.142	-0.0184
842.44	-0.0234
842.738	-0.0213
843.035	-0.035
843.333	-0.037
843.63	-0.0299
843.928	-0.018
844.225	-0.005
844.522	0.0041
844.82	0.0021
845.117	0.0018
845.414	-0.0122
845.711	-0.0177
846.008	-0.0325
846.305	-0.0249
846.602	-0.0262
846.898	-0.0136
847.195	-0.0278
847.492	-0.0302
847.788	-0.0452
848.085	-0.0459
848.382	-0.0363
848.678	-0.0248
848.974	-0.0059
849.271	-0.0112
849.567	-0.0058
849.863	-0.0222
850.159	-0.0356
850.455	-0.0388
850.751	-0.026
851.047	-0.0101
851.343	-0.0162
851.639	-0.0299
851.935	-0.03
852.23	-0.026
852.526	-0.0225
852.822	-0.0304
853.117	-0.0293
853.413	-0.0342
853.708	-0.043
854.003	-0.0569
854.299	-0.0469
854.594	-0.0346
854.889	-0.0089
855.184	-0.0216
855.479	-0.022
855.774	-0.024
856.069	-0.0215
856.364	-0.0161
856.659	-0.0281
856.954	-0.0269
857.248	-0.0315
857.543	-0.0348
857.837	-0.0386
858.132	-0.0361
858.426	-0.0294
858.721	-0.0087
859.015	-0.0075
859.309	0.0012
859.604	0.0093
859.898	0.0219
860.192	-0.0023
860.486	-0.0122
860.78	-0.0122
861.074	0.0052
861.367	-0.0013
861.661	-0.0207
861.955	-0.0154
862.248	-0.0092
862.542	-0.0019
862.836	-0.0192
863.129	-0.0396
863.422	-0.0664
863.716	-0.042
864.009	-0.0336
864.302	-0.0162
864.595	-0.0433
864.889	-0.0418
865.182	-0.025
865.475	-0.0075
865.767	-0.0102
866.06	-0.0181
866.353	-0.0343
866.646	-0.0415
866.938	-0.0517
867.231	-0.0257
867.524	0.0035
867.816	0.0099
868.109	-0.0075
868.401	-0.0278
868.693	-0.0229
868.985	-0.0045
869.278	-0.0083
869.57	-0.0174
869.862	-0.0383
870.154	-0.047
870.446	-0.0419
870.738	-0.0339
871.029	-0.0061
871.321	-0.0041
871.613	0.0002
871.904	-0.0256
872.196	-0.0436
872.487	-0.0546
872.779	-0.0481
873.07	-0.0195
873.362	-0.0205
873.653	-0.0249
873.944	-0.0622
874.235	-0.0295
874.526	-0.0013
874.817	0.0297
875.108	-0.0039
875.399	-0.0263
875.69	-0.0624
875.981	-0.0422
876.271	-0.0431
876.562	-0.0272
876.853	-0.016
877.143	-0.0134
877.434	-0.0279
877.724	-0.0558
878.014	-0.0511
878.305	-0.043
878.595	-0.0478
878.885	-0.0554
879.175	-0.0269
879.465	0.0017
879.755	0.0214
880.045	0.0119
880.335	-0.0103
880.624	-0.0323
880.914	-0.0323
