Data from DIblank_072817_2a_Absorbance_17-56-12-135.txt Node
Date: Fri Jul 28 17:56:12 MDT 2017
User: Tank Lab
Spectrometer: FLMS01220
Trigger mode: 0
Integration Time (sec): 1.000000E-1
Scans to average: 10
Electric dark correction enabled: true
Nonlinearity correction enabled: false
Boxcar width: 1
XAxis mode: Wavelengths
Number of Pixels in Spectrum: 2048
>>>>>Begin Spectral Data<<<<<
179.47	0.5116
179.856	0.5116
180.241	-0
180.626	-0
181.011	-0.2602
181.396	-0.3033
181.781	-0.3013
182.166	-0
182.551	0.6774
182.936	0.3703
183.321	-0
183.706	-0
184.091	0.3262
184.476	-0.4494
184.86	-0
185.245	-0
185.63	-0
186.015	-0.1059
186.399	-0.1921
186.784	0.4272
187.169	-0
187.553	-0
187.938	-0
188.322	-0.1737
188.707	-0.1083
189.091	-0.0259
189.475	-0.0133
189.86	-0.0164
190.244	-0.0456
190.629	-0.0354
191.013	-0.0195
191.397	0.021
191.781	0.0371
192.165	0.0339
192.55	0.0322
192.934	0.0175
193.318	0.0165
193.702	0.0146
194.086	0.0136
194.47	0.0123
194.854	0.0051
195.238	-0.0025
195.622	-0.0034
196.006	-0.0014
196.389	0.0023
196.773	0.0024
197.157	0.0043
197.541	0.0078
197.924	0.0039
198.308	0.0014
198.692	0.0007
199.075	0.0028
199.459	-0.002
199.843	-0.0027
200.226	-0.0052
200.61	-0.0003
200.993	0.0008
201.376	0.0047
201.76	0.0042
202.143	0.0022
202.527	-0.0011
202.91	-0.0034
203.293	-0.003
203.676	-0.0037
204.059	0.001
204.443	0.0002
204.826	0.002
205.209	-0.0006
205.592	0.0016
205.975	0.0024
206.358	0.0031
206.741	0.0033
207.124	0.0059
207.507	0.0038
207.89	0.0035
208.273	0.0025
208.655	0.0046
209.038	0.0029
209.421	0.0002
209.804	0.0023
210.186	0.0047
210.569	0.0055
210.951	0.0043
211.334	0.0037
211.717	0.0052
212.099	0.0029
212.482	0.0019
212.864	0.0019
213.246	0.006
213.629	0.007
214.011	0.0077
214.393	0.0046
214.776	0.0038
215.158	0.0017
215.54	0.0021
215.922	0.003
216.305	0.0037
216.687	0.0032
217.069	0.0018
217.451	0.0024
217.833	0.0015
218.215	0.0018
218.597	0.003
218.979	0.0027
219.361	0
219.742	-0.002
220.124	-0.0004
220.506	0.0023
220.888	0.0013
221.27	0.0029
221.651	0.0045
222.033	0.0067
222.415	0.0062
222.796	0.0059
223.178	0.0058
223.559	0.0045
223.941	0.0034
224.322	0.0017
224.704	0.001
225.085	0.0011
225.466	0.0015
225.848	0.0029
226.229	0.0024
226.61	0.0042
226.992	0.0035
227.373	0.0039
227.754	0.0031
228.135	0.0029
228.516	0.0033
228.897	0.0024
229.278	0.0032
229.659	0.0034
230.04	0.0034
230.421	0.0024
230.802	0.0011
231.183	0.0015
231.564	0.0034
231.944	0.0032
232.325	0.0028
232.706	0.0011
233.087	0.0025
233.467	0.0031
233.848	0.004
234.229	0.0025
234.609	0.0031
234.99	0.0024
235.37	0.0041
235.751	0.0028
236.131	0.0024
236.511	0.0034
236.892	0.0046
237.272	0.0046
237.652	0.0038
238.033	0.0031
238.413	0.004
238.793	0.0029
239.173	0.003
239.553	0.0041
239.933	0.0047
240.313	0.0035
240.694	0.001
241.074	-0.0001
241.453	0.001
241.833	0.0024
242.213	0.0029
242.593	0.0011
242.973	0.0018
243.353	0.0015
243.732	0.0032
244.112	0.0027
244.492	0.002
244.872	0.0031
245.251	0.0032
245.631	0.0044
246.01	0.0024
246.39	0.0013
246.769	0.0008
247.149	0.0016
247.528	0.0031
247.908	0.0026
248.287	0.0023
248.666	0.0002
249.045	0.0012
249.425	0.0009
249.804	0.0015
250.183	0.0016
250.562	0.0019
250.941	0.0037
251.32	0.0034
251.699	0.0031
252.078	0.0023
252.457	0.0016
252.836	0.003
253.215	0.0026
253.594	0.0033
253.973	0.0029
254.352	0.0025
254.731	0.0019
255.109	0.001
255.488	0.0018
255.867	0.0029
256.245	0.0025
256.624	0.0025
257.002	0.0005
257.381	0.0018
257.759	0.0006
258.138	0.0007
258.516	0.0006
258.895	0.0016
259.273	0.0026
259.651	0.0017
260.03	0.0016
260.408	0.0015
260.786	0.0025
261.164	0.0028
261.542	0.0028
261.921	0.0016
262.299	0.002
262.677	0.0019
263.055	0.0022
263.433	0.001
263.811	0.0012
264.188	0.0003
264.566	0.001
264.944	0.0017
265.322	0.0025
265.7	0.0019
266.077	0.0008
266.455	0.0006
266.833	0.0016
267.21	0.0016
267.588	0.002
267.966	0.0013
268.343	0.0021
268.721	0.0031
269.098	0.003
269.475	0.0025
269.853	0.0015
270.23	0.0022
270.607	0.0011
270.985	0.0011
271.362	-0.0004
271.739	0.0002
272.116	0.0004
272.494	0.0011
272.871	0.002
273.248	0.0026
273.625	0.0025
274.002	0.0022
274.379	0.0013
274.756	0.0012
275.132	0.0013
275.509	0.0012
275.886	0.0009
276.263	0.0005
276.64	0.0005
277.016	0.0002
277.393	0.002
277.77	0.0012
278.146	0.0025
278.523	0.0014
278.899	0.0016
279.276	0.0005
279.652	-0.0007
280.029	0.0005
280.405	0.0009
280.782	0.002
281.158	0.0023
281.534	0.0014
281.91	0.0004
282.287	0.0001
282.663	0.0019
283.039	0.0036
283.415	0.0025
283.791	0.0009
284.167	0.0001
284.543	0.0011
284.919	0.0007
285.295	0.0002
285.671	0.0001
286.047	0.0012
286.423	0
286.799	0.0004
287.174	-0.0002
287.55	0.0012
287.926	0.001
288.301	0.002
288.677	0.003
289.053	0.0036
289.428	0.0022
289.804	0.0004
290.179	-0.0001
290.555	0.0014
290.93	0.002
291.305	0.0011
291.681	0.0014
292.056	0.0036
292.431	0.0042
292.806	0.0046
293.182	0.002
293.557	0.0019
293.932	0.001
294.307	0.0027
294.682	0.0034
295.057	0.0032
295.432	0.0021
295.807	0.0015
296.182	0.0018
296.557	0.002
296.932	0.0014
297.306	0.002
297.681	0.0022
298.056	0.0028
298.43	0.002
298.805	0.0011
299.18	0.0015
299.554	0.0009
299.929	0.0019
300.303	0.0014
300.678	-0
301.052	0.0008
301.427	0.001
301.801	0.0031
302.175	0.0024
302.55	0.0032
302.924	0.003
303.298	0.0025
303.672	0.0029
304.046	0.0031
304.421	0.0044
304.795	0.0034
305.169	0.0028
305.543	0.0019
305.917	0.0019
306.291	0.0026
306.664	0.0035
307.038	0.0029
307.412	0.0022
307.786	0.0016
308.16	0.0025
308.533	0.0021
308.907	0.0015
309.281	0.0027
309.654	0.0037
310.028	0.0031
310.401	0.0021
310.775	0.0008
311.148	0.0018
311.522	0.0012
311.895	0.0012
312.268	0.0018
312.642	0.0013
313.015	0.0035
313.388	0.0039
313.761	0.0045
314.135	0.0032
314.508	0.0029
314.881	0.0029
315.254	0.002
315.627	0.001
316	0.0011
316.373	0.0006
316.746	0.0017
317.118	0.0011
317.491	0.0015
317.864	0.0018
318.237	0.0019
318.61	0.0025
318.982	0.0016
319.355	0.0022
319.727	0.0025
320.1	0.0021
320.473	0.0018
320.845	0.0024
321.218	0.0023
321.59	0.0021
321.962	0.0007
322.335	0.0008
322.707	0.0013
323.079	0.0027
323.452	0.0038
323.824	0.005
324.196	0.0036
324.568	0.002
324.94	-0.0004
325.312	0.0019
325.684	0.0023
326.056	0.0029
326.428	0.0011
326.8	0.0005
327.172	0.0004
327.544	-0.0008
327.915	-0.0016
328.287	-0.0002
328.659	0.0026
329.031	0.0048
329.402	0.0028
329.774	0.001
330.145	-0.0013
330.517	-0.0009
330.888	-0.0012
331.26	0.0007
331.631	0.0015
332.003	0.0014
332.374	0.0021
332.745	0.0022
333.117	0.0024
333.488	0.0012
333.859	0.0017
334.23	0.0015
334.601	0.0015
334.972	0.0019
335.343	0.0022
335.714	0.0014
336.085	0.0005
336.456	0.0009
336.827	0.0011
337.198	0.003
337.569	0.0015
337.94	0.0023
338.31	0.0004
338.681	-0.0004
339.052	-0.0004
339.422	0.0004
339.793	0.0024
340.164	0.0021
340.534	0.001
340.905	-0.0003
341.275	-0.0017
341.645	-0.0012
342.016	0.002
342.386	0.0041
342.756	0.0047
343.127	0.0016
343.497	-0.0007
343.867	-0.0009
344.237	0.0016
344.607	0.0015
344.977	-0.0001
345.347	0.0004
345.717	0.0002
346.087	0.0007
346.457	0
346.827	0.0018
347.197	0.0028
347.567	0.002
347.936	0.001
348.306	0.0019
348.676	0.0029
349.046	0.0037
349.415	0.0021
349.785	0.0015
350.154	0.0019
350.524	0.0029
350.893	0.002
351.263	0.0008
351.632	0.0007
352.001	-0.0003
352.371	0.0009
352.74	0.0002
353.109	0.0022
353.478	0.0018
353.847	0.0023
354.217	0.0023
354.586	0.0015
354.955	0.002
355.324	0.0016
355.693	0.0024
356.062	0.002
356.43	0.0022
356.799	0.0006
357.168	0.0002
357.537	-0.0001
357.906	0.0025
358.274	0.0021
358.643	0.0012
359.011	-0.0003
359.38	0.0003
359.749	0.0002
360.117	0.0002
360.486	-0.0002
360.854	-0.0007
361.222	-0.001
361.591	-0.0014
361.959	-0.0016
362.327	-0.0006
362.695	0.0009
363.064	0.0025
363.432	0.0039
363.8	0.0014
364.168	0.0009
364.536	0.0008
364.904	0.0013
365.272	0.0007
365.64	-0.0015
366.008	-0.001
366.376	-0.0007
366.743	-0.001
367.111	-0.0005
367.479	-0.0001
367.847	0.0021
368.214	0.0033
368.582	0.0029
368.949	0.0036
369.317	0.0015
369.684	-0.001
370.052	-0.0025
370.419	-0.0017
370.787	0.0024
371.154	0.0033
371.521	0.0034
371.889	0.004
372.256	0.0026
372.623	0.0019
372.99	-0.0008
373.357	-0.0014
373.724	0.0004
374.091	0.0014
374.458	0.0012
374.825	-0.0004
375.192	-0.0008
375.559	0.0002
375.926	0.0015
376.293	0.0002
376.659	0.0003
377.026	-0.0006
377.393	0.0018
377.759	0.0022
378.126	0.0026
378.492	0.0016
378.859	0.0014
379.225	0.0009
379.592	0.0009
379.958	-0.0001
380.325	-0.0015
380.691	-0.0019
381.057	-0.0019
381.423	0.0003
381.79	-0.0006
382.156	-0.0011
382.522	-0.0016
382.888	0.0003
383.254	0.0012
383.62	0.0021
383.986	0.0012
384.352	0.0004
384.718	-0.0005
385.084	0.0012
385.449	0.001
385.815	-0.0002
386.181	-0.0007
386.547	0.002
386.912	0.0019
387.278	0.0008
387.643	-0.0017
388.009	0.0008
388.374	0
388.74	0.0015
389.105	0.0006
389.471	0.0016
389.836	0.0007
390.201	0.0012
390.566	0.0024
390.932	0.0026
391.297	0.0002
391.662	-0.0015
392.027	-0.0024
392.392	-0.0019
392.757	-0.0006
393.122	-0.0004
393.487	0.0007
393.852	-0.001
394.217	-0.0012
394.582	0.0004
394.946	0.0012
395.311	0.0013
395.676	-0.0002
396.04	-0.0002
396.405	0.0002
396.77	-0.0002
397.134	-0.0011
397.499	-0.0001
397.863	0.0012
398.227	0.0029
398.592	0.0002
398.956	-0.0008
399.32	-0.0006
399.685	-0
400.049	0.0001
400.413	-0.0019
400.777	-0.0019
401.141	-0
401.505	0.0008
401.869	0.0023
402.233	-0.0017
402.597	-0.0017
402.961	-0.0029
403.325	0.0005
403.689	0.0005
404.053	0.0026
404.416	0.0009
404.78	0.0014
405.144	0.0007
405.507	0.0008
405.871	0
406.234	-0.001
406.598	-0.0018
406.961	-0.0022
407.325	-0.0024
407.688	-0.0009
408.051	0.0014
408.415	0.003
408.778	0.0019
409.141	-0
409.504	-0.0007
409.867	-0.0003
410.23	0.0016
410.593	0.0013
410.956	0.0032
411.319	0.0016
411.682	0.0002
412.045	-0.0007
412.408	-0.0015
412.771	-0.0001
413.134	-0.0026
413.496	-0.003
413.859	-0.0021
414.222	0.0003
414.584	0.0048
414.947	0.0045
415.309	0.0031
415.672	0.0012
416.034	0.0008
416.396	0.0008
416.759	-0.0011
417.121	-0.0009
417.483	-0.0003
417.846	0.0005
418.208	-0.0011
418.57	-0.0005
418.932	-0.0031
419.294	-0.0017
419.656	-0.004
420.018	-0.0005
420.38	-0.0022
420.742	-0.0014
421.104	-0.0024
421.466	-0.0029
421.827	-0.004
422.189	-0.0045
422.551	-0.0033
422.912	-0.0008
423.274	0.0006
423.636	0.0022
423.997	0.0017
424.359	0.0019
424.72	0.0027
425.081	0.0027
425.443	0.0041
425.804	0.0035
426.165	0.0036
426.527	0.0006
426.888	-0.0007
427.249	-0.0005
427.61	0.0004
427.971	-0.0003
428.332	-0.0007
428.693	-0.001
429.054	-0.0005
429.415	-0
429.776	-0.0008
430.137	-0.0001
430.498	0.0012
430.858	0.0035
431.219	0.004
431.58	0.0023
431.94	0.0027
432.301	0.0019
432.661	0.0012
433.022	-0.0012
433.382	-0.0007
433.743	0.0027
434.103	0.0039
434.463	0.0034
434.824	0.0003
435.184	0.0006
435.544	0.0018
435.904	0.0046
436.264	0.0043
436.624	0.0027
436.985	-0.0003
437.345	0.0005
437.704	0.0002
438.064	-0.0001
438.424	-0.0029
438.784	-0.0018
439.144	0.0003
439.504	0.0012
439.863	-0.001
440.223	-0.0017
440.583	-0.0018
440.942	-0.001
441.302	-0.0001
441.661	0.0003
442.021	0.0026
442.38	0.0012
442.739	-0.0001
443.099	-0.0044
443.458	-0.0007
443.817	-0.0003
444.176	0.0041
444.536	0.0006
444.895	0.0044
445.254	0.0023
445.613	0.0039
445.972	0.0017
446.331	0.0033
446.69	0.0009
447.049	-0.0018
447.407	-0.002
447.766	-0.0004
448.125	0.0025
448.484	0.0019
448.842	0.0034
449.201	0.0002
449.559	0.0004
449.918	-0.0004
450.276	0.0024
450.635	0.0014
450.993	0.0001
451.352	-0.0007
451.71	-0
452.068	-0.0021
452.426	-0.0018
452.785	-0.0011
453.143	0.0012
453.501	0.0019
453.859	-0.0008
454.217	-0.0011
454.575	-0.0019
454.933	0.0004
455.291	0.0024
455.649	0.0023
456.006	0.0007
456.364	-0.0005
456.722	-0.0001
457.079	-0.0002
457.437	-0.001
457.795	-0.0013
458.152	0.0019
458.51	0.0036
458.867	0.0031
459.225	0.0009
459.582	-0.001
459.939	-0.0015
460.297	-0.0007
460.654	-0.002
461.011	-0.0006
461.368	0.0008
461.725	0.0006
462.082	0.0017
462.44	-0.0006
462.797	-0.0001
463.153	0.0003
463.51	0.0007
463.867	0.003
464.224	0.0032
464.581	0.0016
464.938	0.0016
465.294	0.001
465.651	0.005
466.008	0.0009
466.364	0.0013
466.721	-0.0018
467.077	-0.0005
467.434	-0.0032
467.79	0.0008
468.146	-0
468.503	0.0004
468.859	-0.0023
469.215	-0.0031
469.571	-0.0043
469.927	-0.0026
470.284	0.0008
470.64	0.0049
470.996	0.0032
471.352	0.0023
471.707	-0.0006
472.063	0.0016
472.419	0.0043
472.775	0.0056
473.131	0.0055
473.486	0.0004
473.842	-0.0011
474.198	-0.003
474.553	-0.0002
474.909	0.0025
475.264	0.003
475.62	0.0048
475.975	0.0029
476.331	0.0034
476.686	0.0022
477.041	0.0016
477.396	-0.0005
477.752	0.0004
478.107	0.0016
478.462	0.0008
478.817	-0.0007
479.172	-0.001
479.527	0.0001
479.882	0.0008
480.237	-0.001
480.591	-0.0007
480.946	0.0005
481.301	0.0001
481.656	0.0031
482.01	0.0005
482.365	0.0014
482.72	-0.0006
483.074	0.0006
483.429	0.0011
483.783	0.0003
484.137	0.0003
484.492	0.001
484.846	0.0005
485.2	0.0014
485.555	0.002
485.909	0.0011
486.263	0.0007
486.617	-0.0004
486.971	0.001
487.325	0.0015
487.679	0.0014
488.033	0.0018
488.387	0.0018
488.741	0.0017
489.094	-0.0004
489.448	-0.0016
489.802	-0.0005
490.156	-0.0002
490.509	-0.0003
490.863	-0.0023
491.216	-0.0026
491.57	-0.0025
491.923	-0.0012
492.277	-0.001
492.63	-0.0005
492.983	-0.0017
493.337	-0.0011
493.69	-0.0032
494.043	-0.0041
494.396	-0.0042
494.749	-0.0022
495.102	-0.0007
495.455	-0.0015
495.808	-0.0016
496.161	-0.0008
496.514	-0
496.867	-0.0014
497.22	-0.0027
497.572	-0.0035
497.925	-0.0018
498.278	-0.0027
498.63	-0.0002
498.983	-0.0018
499.335	-0.0006
499.688	-0.0019
500.04	-0.0022
500.393	-0.0025
500.745	-0.0025
501.097	-0.0027
501.449	-0.0009
501.802	-0.0038
502.154	-0.0023
502.506	-0.0026
502.858	-0.0007
503.21	-0.0011
503.562	-0.0022
503.914	-0.0033
504.266	-0.0024
504.618	-0.0026
504.969	0.0004
505.321	0.0004
505.673	0.0015
506.025	0.0007
506.376	-0.0008
506.728	-0.0014
507.079	-0.0006
507.431	0.0004
507.782	0.0001
508.134	0.0002
508.485	0.0004
508.836	0.0017
509.188	-0.0007
509.539	-0.0012
509.89	-0.0009
510.241	-0.0001
510.592	-0.0007
510.943	-0.005
511.294	-0.0027
511.645	-0.0035
511.996	-0.0003
512.347	-0.0012
512.698	0
513.049	0.0016
513.399	0.0027
513.75	0.0022
514.101	0.0003
514.451	-0.0007
514.802	-0.0027
515.152	-0.0041
515.503	-0.0044
515.853	-0.0011
516.203	-0.0002
516.554	-0.0031
516.904	-0.0024
517.254	-0.0023
517.604	-0.0005
517.955	-0.0017
518.305	-0.0045
518.655	-0.0025
519.005	-0.0037
519.355	0.0002
519.705	-0.0042
520.055	-0.0065
520.404	-0.0079
520.754	-0.0066
521.104	-0.0038
521.454	-0.0041
521.803	-0.0015
522.153	-0.0041
522.502	-0.0042
522.852	-0.0041
523.201	-0.0015
523.551	-0.0002
523.9	-0.0032
524.249	-0.0057
524.599	-0.0049
524.948	-0.0028
525.297	-0.0017
525.646	-0.0065
525.995	-0.0086
526.344	-0.0065
526.694	-0.0031
527.042	-0.0036
527.391	-0.0062
527.74	-0.0047
528.089	-0.0012
528.438	0.0008
528.787	-0
529.135	-0.0054
529.484	-0.0068
529.833	-0.0075
530.181	-0.0068
530.53	-0.0042
530.878	-0.0053
531.227	-0.0019
531.575	-0.0033
531.923	-0.0047
532.271	-0.0054
532.62	-0.0022
532.968	-0.0006
533.316	-0.0021
533.664	-0.0029
534.012	-0.001
534.36	0.0013
534.708	-0.0014
535.056	-0.0049
535.404	-0.0044
535.752	-0.0015
536.1	-0.0004
536.447	-0.0032
536.795	-0.0063
537.143	-0.0047
537.49	-0.004
537.838	-0.0042
538.185	-0.0046
538.533	-0.0044
538.88	-0.005
539.228	-0.0037
539.575	-0.0043
539.922	-0.0026
540.269	-0.0047
540.617	-0.0047
540.964	-0.0063
541.311	-0.0051
541.658	-0.0038
542.005	-0.0043
542.352	-0.0053
542.699	-0.0072
543.045	-0.0057
543.392	-0.0042
543.739	-0.0014
544.086	-0.0035
544.432	-0.0061
544.779	-0.0077
545.126	-0.0048
545.472	-0.0036
545.819	-0.0018
546.165	-0.0054
546.512	-0.0046
546.858	-0.0066
547.204	-0.0056
547.55	-0.0067
547.897	-0.0072
548.243	-0.0077
548.589	-0.0069
548.935	-0.0049
549.281	-0.0037
549.627	-0.0063
549.973	-0.0066
550.319	-0.0072
550.665	-0.0065
551.01	-0.0064
551.356	-0.005
551.702	-0.003
552.048	-0.0033
552.393	-0.0031
552.739	-0.0049
553.084	-0.0044
553.43	-0.0055
553.775	-0.0059
554.12	-0.0067
554.466	-0.0069
554.811	-0.006
555.156	-0.008
555.502	-0.0082
555.847	-0.0069
556.192	-0.0028
556.537	-0.0028
556.882	-0.0037
557.227	-0.0077
557.572	-0.008
557.917	-0.0052
558.261	-0.0029
558.606	-0.0024
558.951	-0.0066
559.295	-0.0052
559.64	-0.0042
559.985	-0.0014
560.329	-0.0046
560.674	-0.005
561.018	-0.0044
561.363	-0.0061
561.707	-0.0064
562.051	-0.0089
562.395	-0.0049
562.74	-0.0028
563.084	-0.0033
563.428	-0.0061
563.772	-0.0086
564.116	-0.0087
564.46	-0.007
564.804	-0.008
565.148	-0.0108
565.492	-0.0117
565.835	-0.0116
566.179	-0.0039
566.523	-0.0045
566.866	-0.0021
567.21	-0.0075
567.554	-0.0047
567.897	-0.0042
568.24	-0.0025
568.584	-0.0031
568.927	-0.0046
569.271	-0.0034
569.614	-0.006
569.957	-0.0054
570.3	-0.0067
570.643	-0.0054
570.986	-0.0073
571.329	-0.0038
571.672	-0.0015
572.015	-0.0021
572.358	-0.0029
572.701	-0.0042
573.044	-0.003
573.387	-0.0062
573.729	-0.0054
574.072	-0.0066
574.414	-0.0068
574.757	-0.0065
575.099	-0.0074
575.442	-0.007
575.784	-0.0064
576.127	-0.0044
576.469	-0.0051
576.811	-0.0057
577.153	-0.0057
577.496	-0.0045
577.838	-0.0022
578.18	-0.0043
578.522	-0.0068
578.864	-0.0129
579.206	-0.0083
579.548	-0.0076
579.889	-0.0079
580.231	-0.0067
580.573	-0.003
580.915	-0.0032
581.256	-0.0076
581.598	-0.011
581.939	-0.0128
582.281	-0.0074
582.622	-0.0053
582.964	-0.0001
583.305	-0.004
583.646	-0.0028
583.988	-0.0032
584.329	-0.0028
584.67	-0.0079
585.011	-0.0108
585.352	-0.0128
585.693	-0.0087
586.034	-0.0073
586.375	-0.0071
586.716	-0.0054
587.057	-0.0043
587.398	-0.0063
587.738	-0.0031
588.079	-0.0052
588.42	-0.0027
588.76	-0.0087
589.101	-0.0078
589.441	-0.011
589.782	-0.0072
590.122	-0.0054
590.463	-0.004
590.803	-0.0068
591.143	-0.0065
591.483	-0.0069
591.823	-0.0069
592.164	-0.0099
592.504	-0.0073
592.844	-0.0048
593.184	-0.0037
593.523	-0.0039
593.863	-0.0031
594.203	-0.0054
594.543	-0.0063
594.883	-0.0086
595.222	-0.0061
595.562	-0.0043
595.901	-0.0022
596.241	-0.0052
596.58	-0.0078
596.92	-0.0098
597.259	-0.0089
597.599	-0.007
597.938	-0.0068
598.277	-0.003
598.616	-0.0062
598.955	-0.0064
599.295	-0.0102
599.634	-0.0089
599.973	-0.0069
600.312	-0.008
600.65	-0.0067
600.989	-0.008
601.328	-0.0029
601.667	-0.0008
602.005	-0.0023
602.344	-0.0057
602.683	-0.0076
603.021	-0.0081
603.36	-0.0096
603.698	-0.0102
604.037	-0.0096
604.375	-0.0067
604.713	-0.0082
605.052	-0.0075
605.39	-0.009
605.728	-0.0073
606.066	-0.0081
606.404	-0.0104
606.742	-0.0102
607.08	-0.0086
607.418	-0.0092
607.756	-0.0088
608.094	-0.0095
608.431	-0.0075
608.769	-0.0064
609.107	-0.0095
609.444	-0.0095
609.782	-0.0117
610.12	-0.0064
610.457	-0.0068
610.794	-0.0097
611.132	-0.0124
611.469	-0.0136
611.806	-0.01
612.144	-0.0103
612.481	-0.0078
612.818	-0.0043
613.155	-0.0058
613.492	-0.0045
613.829	-0.0073
614.166	-0.0038
614.503	-0.0048
614.84	-0.006
615.176	-0.0091
615.513	-0.0082
615.85	-0.0107
616.187	-0.0056
616.523	-0.0075
616.86	-0.0081
617.196	-0.0098
617.533	-0.0079
617.869	-0.0029
618.205	-0.006
618.542	-0.0066
618.878	-0.0107
619.214	-0.0098
619.55	-0.0111
619.886	-0.0103
620.222	-0.012
620.558	-0.01
620.894	-0.006
621.23	-0.0047
621.566	-0.0091
621.902	-0.0121
622.238	-0.0136
622.573	-0.0061
622.909	-0.0084
623.244	-0.0077
623.58	-0.0141
623.916	-0.0162
624.251	-0.014
624.586	-0.014
624.922	-0.0096
625.257	-0.0125
625.592	-0.009
625.927	-0.0066
626.263	-0.0055
626.598	-0.0089
626.933	-0.0078
627.268	-0.0056
627.603	-0.0057
627.938	-0.0123
628.272	-0.0154
628.607	-0.0161
628.942	-0.0123
629.277	-0.0086
629.611	-0.0054
629.946	-0.0047
630.281	-0.0057
630.615	-0.0069
630.949	-0.0051
631.284	-0.0074
631.618	-0.0034
631.953	-0.0041
632.287	-0.0031
632.621	-0.0052
632.955	-0.0049
633.289	-0.0017
633.623	-0.0047
633.957	-0.0037
634.291	-0.007
634.625	-0.0044
634.959	-0.0129
635.293	-0.0121
635.627	-0.0149
635.96	-0.0114
636.294	-0.0123
636.627	-0.0117
636.961	-0.0102
637.294	-0.0097
637.628	-0.0104
637.961	-0.0096
638.295	-0.0092
638.628	-0.007
638.961	-0.0089
639.294	-0.0058
639.628	-0.0052
639.961	-0.0022
640.294	-0.0046
640.627	-0.0061
640.96	-0.0125
641.293	-0.0127
641.625	-0.0146
641.958	-0.0096
642.291	-0.0058
642.624	-0.0035
642.956	-0.0063
643.289	-0.0077
643.621	-0.0121
643.954	-0.0156
644.286	-0.0205
644.619	-0.0156
644.951	-0.0095
645.283	-0.01
645.616	-0.0135
645.948	-0.0153
646.28	-0.0115
646.612	-0.0091
646.944	-0.0071
647.276	-0.0079
647.608	-0.0109
647.94	-0.0094
648.272	-0.008
648.603	-0.0049
648.935	-0.0091
649.267	-0.0112
649.598	-0.0119
649.93	-0.0109
650.261	-0.0054
650.593	-0.0052
650.924	-0.0048
651.256	-0.0073
651.587	-0.0072
651.918	-0.0049
652.25	-0.0065
652.581	-0.0079
652.912	-0.0098
653.243	-0.0066
653.574	-0.0054
653.905	-0.0044
654.236	-0.0072
654.567	-0.0057
654.897	-0.0075
655.228	-0.0064
655.559	-0.0068
655.89	-0.0064
656.22	-0.0093
656.551	-0.0102
656.881	-0.0113
657.212	-0.0112
657.542	-0.0105
657.872	-0.011
658.203	-0.01
658.533	0.0028
658.863	0.001
659.193	-0.0076
659.523	-0.0135
659.853	-0.0241
660.183	-0.0196
660.513	-0.0124
660.843	-0.0095
661.173	-0.0043
661.503	-0.0115
661.833	-0.0067
662.162	-0.0115
662.492	-0.0035
662.822	-0.0094
663.151	-0.0101
663.481	-0.018
663.81	-0.0196
664.139	-0.0132
664.469	-0.0139
664.798	-0.0094
665.127	-0.0148
665.456	-0.0096
665.785	-0.0107
666.114	-0.0129
666.443	-0.0122
666.772	-0.0116
667.101	-0.0112
667.43	-0.014
667.759	-0.0127
668.088	-0.0112
668.416	-0.0148
668.745	-0.016
669.074	-0.0191
669.402	-0.0181
669.731	-0.0173
670.059	-0.0161
670.388	-0.0099
670.716	-0.0105
671.044	-0.0036
671.372	-0.0018
671.701	0
672.029	-0.0015
672.357	-0.0095
672.685	-0.0113
673.013	-0.0135
673.341	-0.0059
673.669	-0.0066
673.996	-0.0078
674.324	-0.0114
674.652	-0.0123
674.98	-0.0089
675.307	-0.0094
675.635	-0.009
675.962	-0.0105
676.29	-0.0108
676.617	-0.0097
676.945	-0.0139
677.272	-0.0102
677.599	-0.01
677.926	-0.0061
678.253	-0.0037
678.581	-0.0057
678.908	-0.0076
679.235	-0.0088
679.561	-0.0054
679.888	-0.0041
680.215	-0.0073
680.542	-0.0064
680.869	-0.0066
681.195	-0.0068
681.522	-0.0085
681.849	-0.0127
682.175	-0.013
682.502	-0.0132
682.828	-0.0069
683.154	-0.0118
683.481	-0.0127
683.807	-0.0173
684.133	-0.0119
684.459	-0.011
684.785	-0.0118
685.111	-0.0142
685.437	-0.0195
685.763	-0.0217
686.089	-0.0253
686.415	-0.0261
686.741	-0.0214
687.067	-0.017
687.392	-0.0137
687.718	-0.0117
688.043	-0.0094
688.369	-0.0099
688.694	-0.0077
689.02	-0.0132
689.345	-0.0078
689.67	-0.0137
689.996	-0.0073
690.321	-0.0068
690.646	-0.0046
690.971	-0.0062
691.296	-0.0129
691.621	-0.0145
691.946	-0.0149
692.271	-0.0115
692.596	-0.0061
692.921	-0.0066
693.245	-0.0045
693.57	-0.0122
693.895	-0.0099
694.219	-0.0104
694.544	-0.0082
694.868	-0.0111
695.193	-0.0146
695.517	-0.0123
695.841	-0.0135
696.166	-0.0127
696.49	-0.0164
696.814	-0.0118
697.138	-0.0105
697.462	-0.0095
697.786	-0.0088
698.11	-0.0084
698.434	-0.0095
698.758	-0.0123
699.081	-0.0168
699.405	-0.0145
699.729	-0.0108
700.052	-0.0117
700.376	-0.0132
700.7	-0.0176
701.023	-0.0179
701.346	-0.0172
701.67	-0.0172
701.993	-0.0133
702.316	-0.0113
702.639	-0.0098
702.963	-0.0166
703.286	-0.0165
703.609	-0.0143
703.932	-0.0119
704.255	-0.011
704.578	-0.0094
704.9	-0.0031
705.223	-0.0038
705.546	-0.0061
705.868	-0.0085
706.191	-0.0122
706.514	-0.0122
706.836	-0.0119
707.159	-0.0116
707.481	-0.0125
707.803	-0.0156
708.126	-0.0141
708.448	-0.0171
708.77	-0.0146
709.092	-0.0163
709.414	-0.0117
709.736	-0.0128
710.058	-0.0155
710.38	-0.0175
710.702	-0.0168
711.024	-0.0122
711.345	-0.0098
711.667	-0.0134
711.989	-0.014
712.31	-0.0133
712.632	-0.014
712.953	-0.0104
713.275	-0.0106
713.596	-0.0041
713.917	-0.0103
714.239	-0.0133
714.56	-0.0196
714.881	-0.0162
715.202	-0.0196
715.523	-0.0112
715.844	-0.0123
716.165	-0.0099
716.486	-0.0144
716.807	-0.0134
717.128	-0.0105
717.448	-0.0111
717.769	-0.0138
718.09	-0.0114
718.41	-0.0095
718.731	-0.0054
719.051	-0.01
719.372	-0.0044
719.692	-0.0103
720.012	-0.0082
720.332	-0.01
720.653	-0.0072
720.973	-0.0075
721.293	-0.0113
721.613	-0.0118
721.933	-0.0129
722.253	-0.0089
722.573	-0.0082
722.892	-0.0117
723.212	-0.0183
723.532	-0.0187
723.851	-0.0133
724.171	-0.0092
724.491	-0.0135
724.81	-0.0136
725.129	-0.0125
725.449	-0.009
725.768	-0.0122
726.087	-0.0154
726.407	-0.0143
726.726	-0.0111
727.045	-0.0076
727.364	-0.0079
727.683	-0.0053
728.002	-0.0073
728.321	-0.0052
728.64	-0.0069
728.958	-0.0069
729.277	-0.0089
729.596	-0.0105
729.914	-0.0098
730.233	-0.0092
730.551	-0.008
730.87	-0.0121
731.188	-0.0098
731.507	-0.0101
731.825	-0.0086
732.143	-0.0121
732.461	-0.0116
732.779	-0.0095
733.097	-0.0121
733.415	-0.0115
733.733	-0.0134
734.051	-0.0106
734.369	-0.0124
734.687	-0.0114
735.005	-0.0092
735.322	-0.0057
735.64	-0.009
735.957	-0.0116
736.275	-0.0114
736.592	-0.0059
736.91	-0.0054
737.227	-0.008
737.544	-0.0123
737.862	-0.0113
738.179	-0.0104
738.496	-0.0045
738.813	-0.0071
739.13	-0.0117
739.447	-0.0143
739.764	-0.0141
740.081	-0.0133
740.398	-0.0138
740.714	-0.0128
741.031	-0.009
741.348	-0.0088
741.664	-0.008
741.981	-0.0099
742.297	-0.0082
742.614	-0.0123
742.93	-0.0124
743.246	-0.0164
743.563	-0.0152
743.879	-0.02
744.195	-0.0175
744.511	-0.0166
744.827	-0.0124
745.143	-0.018
745.459	-0.0194
745.775	-0.0156
746.091	-0.0135
746.406	-0.0118
746.722	-0.0166
747.038	-0.0179
747.353	-0.0165
747.669	-0.0146
747.984	-0.0147
748.3	-0.0128
748.615	-0.0199
748.93	-0.016
749.246	-0.0201
749.561	-0.0161
749.876	-0.0176
750.191	-0.0171
750.506	-0.0173
750.821	-0.0169
751.136	-0.0185
751.451	-0.0134
751.766	-0.0155
752.08	-0.0134
752.395	-0.0136
752.71	-0.0152
753.024	-0.0134
753.339	-0.0139
753.653	-0.0114
753.968	-0.0162
754.282	-0.0133
754.596	-0.0059
754.911	0.0018
755.225	0.0023
755.539	-0.0079
755.853	-0.0135
756.167	-0.0142
756.481	-0.0141
756.795	-0.0145
757.109	-0.0138
757.423	-0.0128
757.736	-0.0116
758.05	-0.0186
758.364	-0.0131
758.677	-0.0162
758.991	-0.0114
759.304	-0.0119
759.618	-0.0021
759.931	-0.0074
760.244	-0.0062
760.558	-0.0101
760.871	-0.0097
761.184	-0.0146
761.497	-0.015
761.81	-0.0129
762.123	-0.011
762.436	-0.0124
762.749	-0.0127
763.062	-0.0111
763.374	-0.0111
763.687	-0.0131
764	-0.0152
764.312	-0.0132
764.625	-0.0101
764.937	-0.0106
765.25	-0.0145
765.562	-0.0124
765.874	-0.0106
766.186	-0.0123
766.499	-0.0159
766.811	-0.0176
767.123	-0.0143
767.435	-0.0169
767.747	-0.0177
768.059	-0.0168
768.37	-0.0149
768.682	-0.0089
768.994	-0.0165
769.306	-0.0195
769.617	-0.0254
769.929	-0.0132
770.24	-0.0113
770.552	-0.0127
770.863	-0.0208
771.174	-0.0151
771.486	-0.0102
771.797	-0.0086
772.108	-0.0169
772.419	-0.0167
772.73	-0.015
773.041	-0.0073
773.352	-0.0114
773.663	-0.0114
773.974	-0.0114
774.285	-0.012
774.595	-0.0115
774.906	-0.0144
775.217	-0.0118
775.527	-0.0082
775.838	-0.0078
776.148	-0.0092
776.458	-0.0148
776.769	-0.0124
777.079	-0.0091
777.389	-0.0089
777.699	-0.0106
778.009	-0.0133
778.319	-0.0132
778.629	-0.008
778.939	-0.0075
779.249	-0.007
779.559	-0.0119
779.869	-0.0163
780.178	-0.0169
780.488	-0.0196
780.798	-0.0201
781.107	-0.0188
781.417	-0.0185
781.726	-0.0163
782.035	-0.0168
782.345	-0.013
782.654	-0.0154
782.963	-0.015
783.272	-0.0189
783.581	-0.0186
783.89	-0.0138
784.199	-0.0111
784.508	-0.0163
784.817	-0.0246
785.126	-0.0248
785.434	-0.0145
785.743	-0.0104
786.052	-0.0102
786.36	-0.0156
786.669	-0.0167
786.977	-0.0191
787.285	-0.0144
787.594	-0.0132
787.902	-0.0113
788.21	-0.014
788.518	-0.0109
788.826	-0.009
789.135	-0.0073
789.442	-0.0124
789.75	-0.0112
790.058	-0.0174
790.366	-0.0144
790.674	-0.0234
790.981	-0.0142
791.289	-0.0136
791.597	-0.0084
791.904	-0.0168
792.212	-0.0239
792.519	-0.0275
792.826	-0.0218
793.134	-0.016
793.441	-0.0105
793.748	-0.0106
794.055	-0.01
794.362	-0.0152
794.669	-0.0179
794.976	-0.0178
795.283	-0.0198
795.59	-0.0149
795.897	-0.0151
796.203	-0.0163
796.51	-0.0209
796.817	-0.0213
797.123	-0.018
797.43	-0.0145
797.736	-0.0118
798.042	-0.0136
798.349	-0.0129
798.655	-0.0142
798.961	-0.0116
799.267	-0.0139
799.573	-0.0182
799.879	-0.0246
800.185	-0.0181
800.491	-0.0154
800.797	-0.0114
801.103	-0.0177
801.408	-0.0171
801.714	-0.0141
802.02	-0.0124
802.325	-0.0105
802.631	-0.012
802.936	-0.0155
803.242	-0.0164
803.547	-0.018
803.852	-0.0204
804.157	-0.0236
804.462	-0.0213
804.768	-0.0168
805.073	-0.0131
805.378	-0.0132
805.682	-0.018
805.987	-0.0191
806.292	-0.0187
806.597	-0.0094
806.902	-0.0155
807.206	-0.0155
807.511	-0.0184
807.815	-0.0155
808.12	-0.0214
808.424	-0.0232
808.728	-0.0195
809.033	-0.0156
809.337	-0.0175
809.641	-0.019
809.945	-0.0212
810.249	-0.0148
810.553	-0.0115
810.857	-0.0095
811.161	-0.0133
811.465	-0.0162
811.768	-0.019
812.072	-0.0247
812.376	-0.0226
812.679	-0.0228
812.983	-0.0132
813.286	-0.0146
813.59	-0.0139
813.893	-0.0156
814.196	-0.0157
814.499	-0.0114
814.803	-0.0155
815.106	-0.0178
815.409	-0.0169
815.712	-0.0117
816.015	-0.0132
816.318	-0.0151
816.62	-0.0185
816.923	-0.0156
817.226	-0.0211
817.528	-0.0204
817.831	-0.0196
818.133	-0.016
818.436	-0.0208
818.738	-0.0223
819.041	-0.0261
819.343	-0.0213
819.645	-0.0205
819.947	-0.0077
820.249	-0.012
820.551	-0.0128
820.853	-0.0163
821.155	-0.013
821.457	-0.0126
821.759	-0.011
822.061	-0.0073
822.362	-0.0075
822.664	-0.0149
822.966	-0.0133
823.267	-0.0134
823.569	-0.0125
823.87	-0.0269
824.171	-0.0208
824.473	-0.0188
824.774	-0.0077
825.075	-0.0193
825.376	-0.0134
825.677	-0.0143
825.978	-0.008
826.279	-0.0162
826.58	-0.0147
826.881	-0.0126
827.181	-0.0113
827.482	-0.0113
827.783	-0.0166
828.083	-0.0197
828.384	-0.0283
828.684	-0.0331
828.985	-0.0251
829.285	-0.0204
829.585	-0.0193
829.885	-0.0217
830.185	-0.0224
830.486	-0.0154
830.786	-0.0176
831.086	-0.0168
831.385	-0.0249
831.685	-0.0225
831.985	-0.029
832.285	-0.0188
832.585	-0.0174
832.884	-0.0033
833.184	-0.0085
833.483	-0.0193
833.783	-0.0259
834.082	-0.0358
834.381	-0.0273
834.681	-0.0292
834.98	-0.0151
835.279	-0.015
835.578	-0.0053
835.877	-0.0031
836.176	-0.0034
836.475	-0.0046
836.774	-0.0097
837.072	-0.0114
837.371	-0.0081
837.67	-0.0017
837.968	-0.0008
838.267	-0.013
838.565	-0.0226
838.864	-0.0293
839.162	-0.0237
839.46	-0.021
839.759	-0.0159
840.057	-0.0203
840.355	-0.0176
840.653	-0.0126
840.951	-0.0096
841.249	-0.0146
841.547	-0.0116
841.845	-0.0066
842.142	-0.0031
842.44	-0.0145
842.738	-0.0259
843.035	-0.0334
843.333	-0.0279
843.63	-0.0223
843.928	-0.0112
844.225	-0.0095
844.522	-0.014
844.82	-0.0221
845.117	-0.0155
845.414	-0.008
845.711	0.0074
846.008	-0.0043
846.305	-0.0209
846.602	-0.0364
846.898	-0.0234
847.195	-0.015
847.492	-0.0112
847.788	-0.0162
848.085	-0.0085
848.382	-0.0066
848.678	-0.0128
848.974	-0.0222
849.271	-0.0214
849.567	-0.0224
849.863	-0.0219
850.159	-0.0308
850.455	-0.0322
850.751	-0.0206
851.047	-0.014
851.343	-0.0168
851.639	-0.0206
851.935	-0.0225
852.23	-0.0203
852.526	-0.0252
852.822	-0.0233
853.117	-0.0163
853.413	-0.0112
853.708	-0.0228
854.003	-0.0142
854.299	-0.0125
854.594	-0.007
854.889	-0.0225
855.184	-0.0288
855.479	-0.0152
855.774	-0.0014
856.069	-0.003
856.364	-0.018
856.659	-0.0352
856.954	-0.0215
857.248	-0.0208
857.543	-0.0063
857.837	-0.013
858.132	-0.0094
858.426	-0.0269
858.721	-0.0393
859.015	-0.0457
859.309	-0.0422
859.604	-0.0351
859.898	-0.0295
860.192	-0.0028
860.486	-0.0113
860.78	-0.0165
861.074	-0.0314
861.367	-0.0034
861.661	0.0079
861.955	0.0102
862.248	-0.0154
862.542	-0.0127
862.836	-0.0128
863.129	-0.0069
863.422	-0.0201
863.716	-0.0292
864.009	-0.0238
864.302	-0.0151
864.595	-0.0293
864.889	-0.0374
865.182	-0.0359
865.475	-0.0402
865.767	-0.0475
866.06	-0.0519
866.353	-0.0341
866.646	-0.0155
866.938	-0.027
867.231	-0.019
867.524	-0.0261
867.816	-0.0048
868.109	0.0013
868.401	0.0084
868.693	0.0106
868.985	-0.0033
869.278	-0.0091
869.57	-0.0206
869.862	-0.0366
870.154	-0.0548
870.446	-0.0711
870.738	-0.0583
871.029	-0.0508
871.321	-0.0388
871.613	-0.0317
871.904	-0.0209
872.196	-0.0125
872.487	-0.0144
872.779	-0.0449
873.07	-0.0353
873.362	-0.0357
873.653	-0.0137
873.944	-0.0384
874.235	-0.0615
874.526	-0.0517
874.817	-0.0394
875.108	-0.0045
875.399	-0.0002
875.69	0.0005
875.981	-0.0419
876.271	-0.049
876.562	-0.041
876.853	-0.0262
877.143	-0.0239
877.434	-0.0391
877.724	-0.0296
878.014	-0.014
878.305	-0.0153
878.595	0.0114
878.885	-0.0086
879.175	0.0018
879.465	-0.0437
879.755	-0.0078
880.045	-0.0011
880.335	0.027
880.624	0.0005
880.914	0.0005
