Data from DIblank1_080617_1b_Absorbance_15-07-06-156.txt Node
Date: Sun Aug 06 15:07:06 MDT 2017
User: Tank Lab
Spectrometer: FLMS01220
Trigger mode: 0
Integration Time (sec): 1.000000E-1
Scans to average: 10
Electric dark correction enabled: true
Nonlinearity correction enabled: false
Boxcar width: 1
XAxis mode: Wavelengths
Number of Pixels in Spectrum: 2048
>>>>>Begin Spectral Data<<<<<
179.47	0.1477
179.856	0.1477
180.241	0.1392
180.626	0.2799
181.011	0.2288
181.396	0.2235
181.781	-0.3463
182.166	-0
182.551	1.2063
182.936	-0
183.321	-0
183.706	-0.4195
184.091	-0.1555
184.476	-0
184.86	-0
185.245	-0.3854
185.63	0.7826
186.015	-0
186.399	0.4227
186.784	0.4724
187.169	0.3391
187.553	0.2718
187.938	-0
188.322	-0.1205
188.707	-0.1064
189.091	-0.0735
189.475	-0.0786
189.86	-0.0328
190.244	-0.0154
190.629	-0.0047
191.013	-0.0168
191.397	-0.0044
191.781	0.0066
192.165	0.0089
192.55	-0.001
192.934	-0.0039
193.318	-0.0097
193.702	-0.0076
194.086	-0.013
194.47	-0.0119
194.854	-0.0182
195.238	-0.015
195.622	-0.0151
196.006	-0.0074
196.389	-0.0068
196.773	0.0002
197.157	-0.0049
197.541	-0.0033
197.924	-0.0093
198.308	-0.0091
198.692	-0.0057
199.075	-0.002
199.459	0.0027
199.843	-0.0006
200.226	-0.002
200.61	-0.0064
200.993	-0.0063
201.376	-0.0067
201.76	-0.0044
202.143	-0.0075
202.527	-0.007
202.91	-0.0093
203.293	-0.0054
203.676	-0.0055
204.059	-0.0025
204.443	-0.0027
204.826	-0.0033
205.209	-0.0026
205.592	-0.0037
205.975	-0.0003
206.358	-0.0031
206.741	-0.002
207.124	-0.003
207.507	-0.0005
207.89	0.0005
208.273	0.0008
208.655	-0.0009
209.038	-0.0002
209.421	-0.0002
209.804	-0.0007
210.186	-0.0009
210.569	-0.0024
210.951	0
211.334	-0.0015
211.717	-0.0007
212.099	-0.002
212.482	-0.0029
212.864	-0.0016
213.246	-0.001
213.629	0.0005
214.011	-0.0006
214.393	0.0011
214.776	0.0011
215.158	0.0011
215.54	0.0002
215.922	0.0012
216.305	0.0014
216.687	0.0003
217.069	0.0006
217.451	-0.0005
217.833	-0.0016
218.215	-0.0025
218.597	-0.0032
218.979	-0.0025
219.361	-0.0036
219.742	-0.0012
220.124	-0.0007
220.506	0.0011
220.888	0.001
221.27	0.0003
221.651	-0.0004
222.033	-0.0021
222.415	-0.0022
222.796	-0.0038
223.178	-0.0035
223.559	-0.0027
223.941	-0.0014
224.322	-0.0005
224.704	-0.0012
225.085	-0.001
225.466	-0.0022
225.848	-0.0008
226.229	0.0003
226.61	0.0004
226.992	0.0001
227.373	-0.0005
227.754	0.0015
228.135	0.0008
228.516	-0.0007
228.897	-0.0019
229.278	-0.0037
229.659	-0.0025
230.04	-0.0034
230.421	-0.002
230.802	-0.0021
231.183	-0.0008
231.564	0.0013
231.944	0.002
232.325	0.0012
232.706	-0.0006
233.087	-0.0025
233.467	-0.003
233.848	-0.0022
234.229	-0.0016
234.609	-0.0004
234.99	-0.0002
235.37	-0.0003
235.751	0.0001
236.131	-0.0023
236.511	-0.0037
236.892	-0.0046
237.272	-0.0025
237.652	-0.0013
238.033	-0.0018
238.413	-0.0028
238.793	-0.0023
239.173	-0.0024
239.553	-0.0031
239.933	-0.003
240.313	-0.0032
240.694	-0.0024
241.074	-0.0025
241.453	-0.0005
241.833	-0.0002
242.213	-0.0016
242.593	-0.0025
242.973	-0.0028
243.353	-0.0021
243.732	-0.0022
244.112	-0.0029
244.492	-0.0029
244.872	-0.0037
245.251	-0.0029
245.631	-0.0025
246.01	-0.0019
246.39	-0.0015
246.769	-0.0011
247.149	-0.0012
247.528	-0.0025
247.908	-0.0029
248.287	-0.0031
248.666	-0.0022
249.045	-0.0024
249.425	-0.0014
249.804	-0.0023
250.183	-0.0015
250.562	-0.0016
250.941	-0.0002
251.32	-0.0013
251.699	-0.0019
252.078	-0.0018
252.457	-0.0014
252.836	-0.001
253.215	-0.0019
253.594	-0.0019
253.973	-0.0028
254.352	-0.0019
254.731	-0.0016
255.109	-0.0015
255.488	-0.0023
255.867	-0.0017
256.245	-0.0011
256.624	-0.0001
257.002	-0.0004
257.381	0.0009
257.759	0.0003
258.138	0
258.516	-0.0014
258.895	-0.0014
259.273	-0.0023
259.651	-0.0011
260.03	-0.0014
260.408	0.0001
260.786	-0
261.164	0.0006
261.542	-0.0008
261.921	-0.0018
262.299	-0.0024
262.677	-0.0009
263.055	-0.0029
263.433	-0.0019
263.811	-0.0019
264.188	0.0006
264.566	-0
264.944	-0.001
265.322	-0.0023
265.7	-0.0027
266.077	-0.0025
266.455	-0.001
266.833	-0
267.21	0.0003
267.588	-0.0009
267.966	-0.0025
268.343	-0.0029
268.721	-0.0031
269.098	-0.0021
269.475	-0.0007
269.853	0.0008
270.23	0.0012
270.607	-0.0005
270.985	-0.0018
271.362	-0.0028
271.739	-0.0026
272.116	-0.0014
272.494	-0.0009
272.871	-0.0017
273.248	-0.0038
273.625	-0.0033
274.002	-0.0022
274.379	-0.0011
274.756	-0.0017
275.132	-0.0014
275.509	0.0001
275.886	0.0004
276.263	0.0011
276.64	-0.0006
277.016	0.0003
277.393	0.0003
277.77	-0.0012
278.146	-0.0015
278.523	-0.0027
278.899	-0.002
279.276	-0.0027
279.652	-0.001
280.029	-0.0009
280.405	-0.0007
280.782	-0.0033
281.158	-0.0027
281.534	-0.0029
281.91	-0.002
282.287	-0.0019
282.663	-0.0012
283.039	-0.001
283.415	-0.0006
283.791	-0.0008
284.167	0.0002
284.543	0.0003
284.919	-0.0008
285.295	-0.0034
285.671	-0.0038
286.047	-0.0024
286.423	-0.0005
286.799	0.0005
287.174	-0.0004
287.55	-0.0013
287.926	-0.0021
288.301	-0.0009
288.677	0.0005
289.053	0.0001
289.428	-0.0018
289.804	-0.0022
290.179	-0.0029
290.555	-0.0022
290.93	-0.0018
291.305	-0.0009
291.681	0.0002
292.056	0.0002
292.431	0.0022
292.806	0.0011
293.182	0
293.557	-0.0015
293.932	-0.0011
294.307	0.0004
294.682	-0.001
295.057	-0.0013
295.432	-0.0023
295.807	-0.0012
296.182	-0.0009
296.557	-0.0008
296.932	0.0002
297.306	0.0013
297.681	0.0004
298.056	-0.0006
298.43	-0.0016
298.805	-0.0006
299.18	-0.0011
299.554	-0.0013
299.929	-0.0014
300.303	-0.0004
300.678	-0.0007
301.052	0.0002
301.427	-0.0004
301.801	0.0002
302.175	-0
302.55	0.0008
302.924	0.0007
303.298	-0.0005
303.672	-0.0004
304.046	-0.0006
304.421	-0.0006
304.795	-0.0024
305.169	-0.0028
305.543	-0.0012
305.917	0.0019
306.291	0.003
306.664	0.0024
307.038	-0.0009
307.412	-0.0015
307.786	-0.0012
308.16	-0.0004
308.533	-0.0004
308.907	-0.0016
309.281	-0.0011
309.654	-0.0002
310.028	0.0004
310.401	-0.0001
310.775	0.0001
311.148	-0.0019
311.522	-0.0016
311.895	-0.0026
312.268	0.0004
312.642	-0.0006
313.015	0.0003
313.388	-0.0008
313.761	-0.0009
314.135	-0.003
314.508	-0.0031
314.881	-0.0014
315.254	-0.0015
315.627	-0.0013
316	-0.0014
316.373	-0.0002
316.746	-0.0004
317.118	-0.0012
317.491	-0.0018
317.864	-0.0015
318.237	-0.0014
318.61	-0.0002
318.982	-0.0003
319.355	0.0007
319.727	0.001
320.1	-0.001
320.473	-0.0023
320.845	-0.0027
321.218	-0.0008
321.59	-0
321.962	-0.0009
322.335	0.0002
322.707	-0.0007
323.079	0.0012
323.452	0.0009
323.824	-0.0001
324.196	-0.0015
324.568	-0.0018
324.94	-0.0001
325.312	0.0006
325.684	0.0007
326.056	-0.0011
326.428	-0.002
326.8	-0.0024
327.172	-0.0014
327.544	-0.0002
327.915	0.0006
328.287	0.0021
328.659	0.0016
329.031	0.0006
329.402	-0.0003
329.774	-0.0009
330.145	-0.0012
330.517	-0.0009
330.888	-0.0017
331.26	-0.0003
331.631	-0.0023
332.003	-0.0007
332.374	-0.0018
332.745	-0.0004
333.117	-0.003
333.488	-0.0033
333.859	-0.0035
334.23	-0.0019
334.601	0.0007
334.972	0.0006
335.343	0.0011
335.714	-0.0015
336.085	-0.0019
336.456	-0.0022
336.827	-0.0018
337.198	-0.0014
337.569	0.0005
337.94	0.0002
338.31	0.0007
338.681	-0.0015
339.052	-0.0015
339.422	-0.0021
339.793	-0.0031
340.164	-0.0038
340.534	-0.0044
340.905	-0.0044
341.275	-0.0041
341.645	-0.0033
342.016	-0.0033
342.386	-0.0028
342.756	-0.0036
343.127	-0.0026
343.497	-0.0017
343.867	-0.001
344.237	-0.0005
344.607	-0.0006
344.977	-0.0016
345.347	-0.0023
345.717	-0.0028
346.087	-0.0022
346.457	-0.0018
346.827	-0.0018
347.197	-0.003
347.567	-0.0034
347.936	-0.0045
348.306	-0.0029
348.676	-0.0029
349.046	-0.0035
349.415	-0.0038
349.785	-0.0041
350.154	-0.0034
350.524	-0.0029
350.893	-0.0011
351.263	0.0009
351.632	0.0021
352.001	-0.0003
352.371	-0.0009
352.74	-0.0022
353.109	0.001
353.478	0.0027
353.847	0.0041
354.217	0.0032
354.586	0.0004
354.955	-0.0018
355.324	-0.0027
355.693	-0.0016
356.062	-0.0002
356.43	-0.0007
356.799	-0.0016
357.168	-0.0029
357.537	-0.002
357.906	-0.002
358.274	-0.0007
358.643	0.0001
359.011	0.0011
359.38	0.002
359.749	0.0009
360.117	-0.0005
360.486	-0.0012
360.854	-0.0008
361.222	-0
361.591	-0.0001
361.959	-0.0002
362.327	-0.0008
362.695	-0.0008
363.064	-0.0014
363.432	-0.0022
363.8	-0.0018
364.168	-0.0017
364.536	0.0006
364.904	0.0011
365.272	0.0005
365.64	0.0006
366.008	-0.0012
366.376	-0.0016
366.743	-0.0027
367.111	-0.0005
367.479	0.0012
367.847	0.0012
368.214	-0.0012
368.582	-0.0014
368.949	-0.0018
369.317	0.0011
369.684	-0.0008
370.052	-0.0001
370.419	-0.0018
370.787	0.0001
371.154	-0.0003
371.521	0
371.889	-0.0003
372.256	-0.0007
372.623	-0.0017
372.99	-0.0024
373.357	-0.0024
373.724	-0.0031
374.091	-0.0044
374.458	-0.0034
374.825	-0.0016
375.192	-0.0004
375.559	-0.001
375.926	-0.0016
376.293	-0.0007
376.659	-0.0008
377.026	-0.001
377.393	-0.0001
377.759	-0.0002
378.126	-0.0007
378.492	-0.0033
378.859	-0.0047
379.225	-0.0051
379.592	-0.004
379.958	-0.0018
380.325	-0.0014
380.691	-0.0009
381.057	-0.0016
381.423	-0.0001
381.79	-0.002
382.156	-0.0014
382.522	-0.0014
382.888	0.0014
383.254	0.0028
383.62	0.0026
383.986	0.0021
384.352	0.0009
384.718	-0.0017
385.084	-0.0019
385.449	-0.0023
385.815	-0.0016
386.181	-0.0013
386.547	-0.0024
386.912	-0.0018
387.278	-0.0049
387.643	-0.0048
388.009	-0.0028
388.374	-0.0013
388.74	-0.0001
389.105	0.0001
389.471	0.0023
389.836	0.0015
390.201	0.0015
390.566	0.0006
390.932	0.0025
391.297	0.0018
391.662	0.0016
392.027	-0.0007
392.392	-0.0018
392.757	-0.0036
393.122	-0.0025
393.487	-0.0018
393.852	-0.0022
394.217	-0.0035
394.582	-0.0049
394.946	-0.0028
395.311	-0.0019
395.676	-0.0006
396.04	-0.0033
396.405	-0.002
396.77	-0.0029
397.134	-0.0009
397.499	-0.002
397.863	-0.0006
398.227	-0.0001
398.592	-0.0003
398.956	-0.0015
399.32	-0.0015
399.685	-0.0023
400.049	-0.0018
400.413	-0.0017
400.777	-0.0017
401.141	-0.0021
401.505	-0.0019
401.869	-0.0013
402.233	-0.0013
402.597	-0.001
402.961	0.0006
403.325	0.0002
403.689	0.0014
404.053	0.0003
404.416	0.0002
404.78	-0.0008
405.144	-0.0003
405.507	-0.0009
405.871	-0.0027
406.234	-0.0033
406.598	-0.0015
406.961	0.0016
407.325	0.0016
407.688	0.0001
408.051	-0.0014
408.415	-0.002
408.778	-0.0001
409.141	-0.0021
409.504	-0.0035
409.867	-0.0041
410.23	-0.0033
410.593	-0.0028
410.956	-0.0054
411.319	-0.0045
411.682	-0.0026
412.045	-0.0009
412.408	-0.0006
412.771	-0.0006
413.134	0.0007
413.496	0.0004
413.859	-0.0016
414.222	-0.0022
414.584	-0.0021
414.947	-0.0014
415.309	-0.0035
415.672	-0.0046
416.034	-0.0027
416.396	-0.0026
416.759	-0.0006
417.121	-0.0018
417.483	0.0018
417.846	0.0014
418.208	0.0032
418.57	-0.0004
418.932	-0.0034
419.294	-0.0056
419.656	-0.0036
420.018	-0.0011
420.38	-0.001
420.742	-0.0014
421.104	-0.0039
421.466	-0.0012
421.827	-0.0007
422.189	0.0018
422.551	-0.0004
422.912	-0.0008
423.274	-0.0008
423.636	-0.0031
423.997	-0.004
424.359	-0.0038
424.72	-0.0014
425.081	-0.0017
425.443	-0.0023
425.804	-0.0035
426.165	-0.0031
426.527	-0.0037
426.888	-0.0026
427.249	0.0001
427.61	0.0022
427.971	0.002
428.332	-0.0015
428.693	-0.0022
429.054	-0.0027
429.415	-0.0012
429.776	-0.0037
430.137	-0.0038
430.498	-0.0047
430.858	-0.0041
431.219	-0.0034
431.58	-0.0003
431.94	0.0013
432.301	0.002
432.661	-0.0003
433.022	-0.0014
433.382	-0.0026
433.743	-0.0027
434.103	-0.0016
434.463	-0.0006
434.824	-0.0015
435.184	-0.0014
435.544	-0.0011
435.904	0.0008
436.264	0.0004
436.624	-0
436.985	-0.0002
437.345	0.0006
437.704	0.0004
438.064	0.0005
438.424	-0.0007
438.784	-0.001
439.144	0.0003
439.504	0.0005
439.863	-0.0001
440.223	-0.0024
440.583	-0.0037
440.942	-0.0016
441.302	-0.0011
441.661	0.0015
442.021	-0.0004
442.38	-0.0007
442.739	-0.002
443.099	-0.0011
443.458	-0.0016
443.817	-0.0019
444.176	-0.0016
444.536	-0.0019
444.895	-0.0013
445.254	-0.0014
445.613	-0.0017
445.972	-0.0013
446.331	-0.0017
446.69	-0.0012
447.049	0.0004
447.407	0.0013
447.766	0.0025
448.125	0.0031
448.484	0.0032
448.842	0.0016
449.201	-0.0022
449.559	-0.0037
449.918	-0.0028
450.276	-0.0037
450.635	-0.0036
450.993	-0.0043
451.352	-0.0025
451.71	-0.0023
452.068	-0.0017
452.426	-0.0009
452.785	-0.0045
453.143	-0.0054
453.501	-0.0049
453.859	-0.0011
454.217	-0.0022
454.575	-0.0046
454.933	-0.0063
455.291	-0.0041
455.649	-0.005
456.006	-0.0041
456.364	-0.0038
456.722	-0.0015
457.079	-0.002
457.437	-0.0025
457.795	-0.0023
458.152	-0.002
458.51	-0.0023
458.867	-0.0015
459.225	-0.0022
459.582	-0.0021
459.939	-0.002
460.297	-0.0012
460.654	-0.0032
461.011	-0.0039
461.368	-0.0012
461.725	0
462.082	-0.0011
462.44	-0.0028
462.797	-0.0001
463.153	0.0008
463.51	0.001
463.867	-0.0006
464.224	-0.0017
464.581	-0.0037
464.938	-0.0028
465.294	-0.0035
465.651	-0.0017
466.008	-0.0016
466.364	0.0011
466.721	0.0017
467.077	0.0021
467.434	0.0027
467.79	0.0025
468.146	-0.0016
468.503	-0.0032
468.859	-0.0032
469.215	-0.0011
469.571	0.0008
469.927	0.0016
470.284	0.0011
470.64	-0.0019
470.996	-0.0035
471.352	-0.0045
471.707	-0.0044
472.063	-0.0032
472.419	-0.0029
472.775	-0.0017
473.131	-0.0027
473.486	-0.0006
473.842	0.0022
474.198	0.0022
474.553	0.0016
474.909	-0.0039
475.264	-0.0052
475.62	-0.0061
475.975	-0.0023
476.331	-0.0001
476.686	-0.0003
477.041	-0.0029
477.396	-0.0038
477.752	-0.0037
478.107	-0.0028
478.462	-0.0033
478.817	-0.0005
479.172	-0.0012
479.527	-0.0016
479.882	-0.0033
480.237	-0.0023
480.591	-0.0016
480.946	-0.0013
481.301	-0.0007
481.656	-0.0007
482.01	-0.0015
482.365	-0.0028
482.72	-0.0003
483.074	-0.0023
483.429	-0.0047
483.783	-0.0071
484.137	-0.0055
484.492	-0.0037
484.846	-0.0028
485.2	-0.0026
485.555	-0.0004
485.909	0.0009
486.263	-0.0006
486.617	-0.0009
486.971	-0.0022
487.325	0.0001
487.679	-0.0015
488.033	-0.0023
488.387	-0.0053
488.741	-0.0063
489.094	-0.0046
489.448	-0.0023
489.802	0.0008
490.156	-0.0028
490.509	-0.0022
490.863	-0.0031
491.216	-0.0018
491.57	-0.0029
491.923	-0.0032
492.277	-0.0037
492.63	-0.0039
492.983	-0.0043
493.337	-0.002
493.69	-0.0006
494.043	-0.0008
494.396	0
494.749	-0.0029
495.102	-0.0013
495.455	-0.0027
495.808	-0.0017
496.161	-0.0037
496.514	-0.0035
496.867	-0.0024
497.22	-0.0015
497.572	-0.0021
497.925	-0.0026
498.278	-0.0026
498.63	-0.0043
498.983	-0.0034
499.335	-0.0037
499.688	-0.0022
500.04	-0.0023
500.393	-0.0035
500.745	-0.0057
501.097	-0.0052
501.449	-0.0042
501.802	-0.0018
502.154	-0.0038
502.506	-0.0025
502.858	-0.0061
503.21	-0.0054
503.562	-0.005
503.914	-0.0013
504.266	-0.0005
504.618	-0.0005
504.969	0
505.321	-0.0019
505.673	-0.0041
506.025	-0.0052
506.376	-0.003
506.728	-0.0025
507.079	-0.0024
507.431	-0.0025
507.782	-0.001
508.134	-0.0019
508.485	-0.0033
508.836	-0.0037
509.188	-0.0036
509.539	-0.003
509.89	-0.0038
510.241	-0.0038
510.592	-0.0037
510.943	-0.0043
511.294	-0.0024
511.645	-0.0032
511.996	-0.0014
512.347	-0.0038
512.698	-0.0016
513.049	-0.0033
513.399	-0.0034
513.75	-0.0043
514.101	-0.0061
514.451	-0.0055
514.802	-0.0049
515.152	-0.0005
515.503	-0.001
515.853	0.0013
516.203	-0.001
516.554	0.0007
516.904	-0.0026
517.254	-0.0013
517.604	-0.0023
517.955	-0.0017
518.305	-0.0012
518.655	-0.0019
519.005	-0.005
519.355	-0.0056
519.705	-0.0067
520.055	-0.0039
520.404	-0.0052
520.754	-0.0019
521.104	-0.0025
521.454	-0.0009
521.803	-0.0019
522.153	-0.0021
522.502	-0.0043
522.852	-0.0043
523.201	-0.0031
523.551	-0.0014
523.9	-0.0009
524.249	-0.0002
524.599	-0.001
524.948	-0.0019
525.297	-0.0052
525.646	-0.0052
525.995	-0.0036
526.344	-0.0002
526.694	0.0009
527.042	0.0001
527.391	-0.0028
527.74	-0.0045
528.089	-0.0075
528.438	-0.0063
528.787	-0.0064
529.135	-0.0052
529.484	-0.0061
529.833	-0.0052
530.181	-0.0028
530.53	-0.0019
530.878	-0.0014
531.227	-0.0043
531.575	-0.004
531.923	-0.0048
532.271	-0.0018
532.62	-0.0006
532.968	-0.0002
533.316	-0.0019
533.664	-0.0044
534.012	-0.0069
534.36	-0.009
534.708	-0.0103
535.056	-0.0067
535.404	-0.0021
535.752	0.0007
536.1	-0.0013
536.447	-0.0026
536.795	-0.0011
537.143	0.0008
537.49	0.0024
537.838	0.0003
538.185	-0.0015
538.533	-0.0028
538.88	-0.0023
539.228	-0.0021
539.575	-0.0017
539.922	-0.0026
540.269	-0.0003
540.617	-0.0024
540.964	0.0002
541.311	0.0001
541.658	-0.0009
542.005	-0.005
542.352	-0.0074
542.699	-0.0046
543.045	-0.0013
543.392	-0
543.739	-0.0002
544.086	-0.0023
544.432	-0.0016
544.779	-0.0008
545.126	-0.0014
545.472	0.0009
545.819	0
546.165	0.0008
546.512	-0.0067
546.858	-0.008
547.204	-0.0107
547.55	-0.006
547.897	-0.005
548.243	-0.0037
548.589	-0.0018
548.935	-0.0029
549.281	-0.0032
549.627	-0.0055
549.973	-0.0046
550.319	-0.0014
550.665	0.0003
551.01	-0.0005
551.356	-0.0032
551.702	-0.0073
552.048	-0.0069
552.393	-0.0054
552.739	-0.0044
553.084	-0.0042
553.43	-0.0029
553.775	-0.0003
554.12	0.0002
554.466	-0.001
554.811	-0.0043
555.156	-0.004
555.502	-0.0047
555.847	-0.0019
556.192	-0.0055
556.537	-0.0044
556.882	-0.0055
557.227	-0.0034
557.572	-0.0059
557.917	-0.0047
558.261	-0.0024
558.606	0.0007
558.951	-0.0008
559.295	-0.0021
559.64	-0.0035
559.985	-0.0046
560.329	-0.0041
560.674	-0.0031
561.018	-0.0034
561.363	-0.0051
561.707	-0.0067
562.051	-0.0061
562.395	-0.0054
562.74	-0.0031
563.084	-0.0029
563.428	-0.0025
563.772	-0.0026
564.116	-0.0018
564.46	-0.0003
564.804	0.0005
565.148	-0.0021
565.492	-0.0018
565.835	-0.0012
566.179	0.0024
566.523	-0.0001
566.866	-0.0048
567.21	-0.0068
567.554	-0.0096
567.897	-0.0055
568.24	-0.0043
568.584	-0.0026
568.927	-0.0018
569.271	-0.0022
569.614	-0.0029
569.957	-0.005
570.3	-0.0051
570.643	-0.0042
570.986	-0.0047
571.329	-0.0047
571.672	-0.0013
572.015	0.0001
572.358	-0.0001
572.701	-0.0033
573.044	-0.0036
573.387	-0.0033
573.729	-0.0033
574.072	-0.0032
574.414	-0.0037
574.757	-0.0021
575.099	-0.0046
575.442	-0.0053
575.784	-0.0057
576.127	-0.0028
576.469	-0.0003
576.811	0.0008
577.153	-0.0008
577.496	-0.0017
577.838	-0.0046
578.18	-0.0037
578.522	-0.0053
578.864	-0.0075
579.206	-0.0079
579.548	-0.007
579.889	-0.0044
580.231	-0.0015
580.573	0.001
580.915	-0.0001
581.256	-0.0029
581.598	-0.0052
581.939	-0.0049
582.281	-0.0026
582.622	-0.004
582.964	-0.003
583.305	-0.0036
583.646	-0.0029
583.988	-0.0018
584.329	-0.0034
584.67	-0.0028
585.011	-0.0041
585.352	-0.0022
585.693	-0.0011
586.034	-0.0014
586.375	-0.0036
586.716	-0.0029
587.057	-0.0001
587.398	0.0026
587.738	0.0014
588.079	-0.0027
588.42	-0.0035
588.76	-0.0051
589.101	-0.0024
589.441	-0.0008
589.782	0.0011
590.122	0.0008
590.463	-0.0014
590.803	-0.0022
591.143	-0.0027
591.483	-0.0038
591.823	-0.0043
592.164	-0.0047
592.504	-0.0028
592.844	-0.0007
593.184	0.001
593.523	-0.0022
593.863	-0.004
594.203	-0.0055
594.543	-0.0023
594.883	-0.0044
595.222	-0.0028
595.562	-0.0011
595.901	0.0003
596.241	-0.002
596.58	-0.0031
596.92	-0.0042
597.259	-0.0046
597.599	-0.004
597.938	-0.0006
598.277	-0.0004
598.616	-0.0034
598.955	-0.0054
599.295	-0.0048
599.634	-0.0043
599.973	-0.0036
600.312	-0.0019
600.65	-0.0032
600.989	-0.0028
601.328	-0.0025
601.667	0.0013
602.005	-0.004
602.344	-0.0067
602.683	-0.008
603.021	-0.0049
603.36	-0.002
603.698	-0.0032
604.037	-0.0019
604.375	-0.002
604.713	-0
605.052	0
605.39	-0.0013
605.728	-0.0038
606.066	-0.0042
606.404	-0.0051
606.742	-0.0047
607.08	-0.002
607.418	-0.0032
607.756	-0.0024
608.094	-0.003
608.431	-0.0006
608.769	-0.0014
609.107	-0.0043
609.444	-0.0049
609.782	-0.0044
610.12	-0.002
610.457	-0.003
610.794	-0.0034
611.132	-0.0045
611.469	-0.0039
611.806	-0.0046
612.144	-0.0066
612.481	-0.0041
612.818	-0.0035
613.155	-0.001
613.492	-0.004
613.829	-0.0005
614.166	-0.002
614.503	-0.0012
614.84	-0.0052
615.176	-0.0049
615.513	-0.0034
615.85	-0.0037
616.187	-0.0015
616.523	-0.0037
616.86	-0.0034
617.196	-0.0037
617.533	-0.0009
617.869	0.0019
618.205	-0.0004
618.542	-0.003
618.878	-0.0079
619.214	-0.0063
619.55	-0.0051
619.886	-0.0018
620.222	-0.0033
620.558	-0.0028
620.894	-0.0043
621.23	-0.0058
621.566	-0.0072
621.902	-0.0088
622.238	-0.0085
622.573	-0.0081
622.909	-0.0078
623.244	-0.0067
623.58	-0.0079
623.916	-0.0045
624.251	-0.0066
624.586	-0.0064
624.922	-0.0061
625.257	-0.0048
625.592	-0.0021
625.927	-0.0025
626.263	-0.0005
626.598	-0.0015
626.933	-0.0025
627.268	-0.0012
627.603	-0.0009
627.938	-0.0022
628.272	-0.0058
628.607	-0.0068
628.942	-0.005
629.277	-0.0066
629.611	-0.0097
629.946	-0.0085
630.281	-0.006
630.615	-0.0051
630.949	-0.0064
631.284	-0.0054
631.618	-0.0013
631.953	-0.0023
632.287	-0.0039
632.621	-0.0087
632.955	-0.0085
633.289	-0.0089
633.623	-0.0077
633.957	-0.0038
634.291	-0.0054
634.625	-0.0015
634.959	-0.0068
635.293	-0.0077
635.627	-0.0055
635.96	-0.0031
636.294	-0.002
636.627	-0.0055
636.961	-0.0028
637.294	-0.0032
637.628	-0.0067
637.961	-0.0072
638.295	-0.0045
638.628	-0.0025
638.961	-0.0051
639.294	-0.0039
639.628	-0.0011
639.961	-0
640.294	-0.0054
640.627	-0.0066
640.96	-0.0061
641.293	0.0003
641.625	0.0006
641.958	0.0029
642.291	-0.0059
642.624	-0.007
642.956	-0.0118
643.289	-0.0029
643.621	-0.0059
643.954	-0.0057
644.286	-0.0065
644.619	-0.0033
644.951	-0.003
645.283	-0.0057
645.616	-0.0066
645.948	-0.0043
646.28	-0.0034
646.612	-0.0008
646.944	-0.0039
647.276	-0.0028
647.608	-0.0074
647.94	-0.0037
648.272	-0.0054
648.603	-0.0036
648.935	-0.0078
649.267	-0.0043
649.598	-0.0069
649.93	-0.0033
650.261	-0.0043
650.593	-0.0034
650.924	-0.0092
651.256	-0.0105
651.587	-0.009
651.918	-0.0046
652.25	-0.0064
652.581	-0.0068
652.912	-0.0072
653.243	-0.006
653.574	-0.0027
653.905	-0.0053
654.236	-0.006
654.567	-0.0088
654.897	-0.009
655.228	-0.0083
655.559	-0.0082
655.89	-0.0068
656.22	-0.0029
656.551	-0.0044
656.881	0.0008
657.212	-0.0038
657.542	-0.0026
657.872	-0.0039
658.203	-0.0037
658.533	0.0066
658.863	0.0031
659.193	-0.0012
659.523	-0.0042
659.853	-0.0089
660.183	-0.0041
660.513	-0.0072
660.843	-0.0034
661.173	-0.0044
661.503	0.0007
661.833	-0.0042
662.162	-0.002
662.492	-0.0022
662.822	-0.0033
663.151	-0.0043
663.481	-0.0049
663.81	-0.0023
664.139	-0.0037
664.469	-0.0008
664.798	0.0009
665.127	-0.002
665.456	-0.0058
665.785	-0.0061
666.114	-0.006
666.443	-0.0064
666.772	-0.0085
667.101	-0.011
667.43	-0.0146
667.759	-0.012
668.088	-0.0093
668.416	-0.0076
668.745	-0.0092
669.074	-0.0075
669.402	-0.0052
669.731	-0.008
670.059	-0.0062
670.388	-0.0041
670.716	-0.0019
671.044	-0.003
671.372	-0.0064
671.701	-0.0022
672.029	-0.0027
672.357	0.0017
672.685	0.0038
673.013	0.007
673.341	0.0031
673.669	-0.004
673.996	-0.0052
674.324	0.0016
674.652	0.0026
674.98	-0.0003
675.307	-0.0048
675.635	-0.004
675.962	-0.0037
676.29	-0.0049
676.617	-0.0061
676.945	-0.0027
677.272	-0.0026
677.599	-0.0048
677.926	-0.0079
678.253	-0.0079
678.581	-0.0094
678.908	-0.0092
679.235	-0.0112
679.561	-0.0085
679.888	-0.0095
680.215	-0.0047
680.542	-0.0074
680.869	-0.0054
681.195	-0.0071
681.522	-0.0039
681.849	-0.0081
682.175	-0.0118
682.502	-0.0102
682.828	-0.0057
683.154	0.0018
683.481	-0.0023
683.807	-0.0027
684.133	-0.0078
684.459	-0.0098
684.785	-0.01
685.111	-0.0086
685.437	-0.0066
685.763	-0.0085
686.089	-0.007
686.415	-0.0048
686.741	-0.0001
687.067	-0.003
687.392	-0.0039
687.718	-0.009
688.043	-0.0075
688.369	-0.004
688.694	-0.0001
689.02	0.0003
689.345	-0.0059
689.67	-0.0085
689.996	-0.0097
690.321	-0.0028
690.646	-0.0028
690.971	-0.0044
691.296	-0.0058
691.621	-0.0029
691.946	-0.0061
692.271	-0.0102
692.596	-0.0116
692.921	-0.0053
693.245	0.0007
693.57	-0.0002
693.895	-0.0008
694.219	-0.0055
694.544	-0.0025
694.868	-0.0041
695.193	-0.0037
695.517	-0.0063
695.841	-0.0054
696.166	-0.0012
696.49	-0.0011
696.814	-0.0014
697.138	-0.0049
697.462	0.0006
697.786	-0.001
698.11	-0.0011
698.434	-0.0112
698.758	-0.0136
699.081	-0.0144
699.405	-0.0057
699.729	-0.0013
700.052	-0.004
700.376	-0.0106
700.7	-0.0126
701.023	-0.0121
701.346	-0.0085
701.67	-0.0107
701.993	-0.01
702.316	-0.0099
702.639	-0.0034
702.963	-0.0087
703.286	-0.0103
703.609	-0.0085
703.932	-0.0028
704.255	-0.0021
704.578	-0.0063
704.9	-0.0028
705.223	-0.0024
705.546	-0.002
705.868	-0.0057
706.191	-0.0074
706.514	-0.0102
706.836	-0.0084
707.159	-0.0041
707.481	-0.0011
707.803	0.0008
708.126	-0.0016
708.448	0.0015
708.77	0.0012
709.092	0.0004
709.414	-0.0024
709.736	-0.0072
710.058	-0.0078
710.38	-0.0035
710.702	-0.0033
711.024	-0.0005
711.345	-0.006
711.667	-0.0044
711.989	-0.0056
712.31	-0.0018
712.632	-0.0028
712.953	-0.0046
713.275	-0.0048
713.596	-0.0036
713.917	-0.0056
714.239	-0.0065
714.56	-0.0073
714.881	-0.0051
715.202	-0.0017
715.523	-0.0017
715.844	0.0011
716.165	-0.0034
716.486	-0.0024
716.807	-0.0081
717.128	-0.0092
717.448	-0.0105
717.769	-0.0104
718.09	-0.0101
718.41	-0.01
718.731	-0.009
719.051	-0.0073
719.372	-0.008
719.692	-0.0069
720.012	-0.0062
720.332	-0.0073
720.653	-0.0069
720.973	-0.0096
721.293	-0.0103
721.613	-0.0085
721.933	-0.0068
722.253	-0.0012
722.573	-0.0016
722.892	-0.0051
723.212	-0.0079
723.532	-0.0084
723.851	-0.0068
724.171	-0.0038
724.491	-0.0049
724.81	-0.0058
725.129	-0.0099
725.449	-0.0115
725.768	-0.0112
726.087	-0.0107
726.407	-0.0114
726.726	-0.0078
727.045	-0.008
727.364	-0.0063
727.683	-0.0032
728.002	-0.0039
728.321	-0.0027
728.64	-0.0093
728.958	-0.0099
729.277	-0.0094
729.596	-0.0091
729.914	-0.009
730.233	-0.0107
730.551	-0.0103
730.87	-0.0099
731.188	-0.0092
731.507	-0.006
731.825	-0.0034
732.143	-0.0015
732.461	-0.0003
732.779	-0.0012
733.097	-0.002
733.415	-0.0032
733.733	-0.0055
734.051	-0.0063
734.369	-0.0054
734.687	-0.0066
735.005	-0.0079
735.322	-0.0062
735.64	0.0001
735.957	0.0021
736.275	-0.0016
736.592	-0.0052
736.91	-0.0065
737.227	-0.0046
737.544	-0.0022
737.862	0.0013
738.179	-0.0027
738.496	-0.005
738.813	-0.0079
739.13	-0.0037
739.447	-0.0073
739.764	-0.0075
740.081	-0.0126
740.398	-0.0107
740.714	-0.0119
741.031	-0.0117
741.348	-0.0089
741.664	-0.0026
741.981	0.0028
742.297	0.0055
742.614	0.0027
742.93	-0.001
743.246	-0.0082
743.563	-0.0136
743.879	-0.0147
744.195	-0.0125
744.511	-0.0087
744.827	-0.0096
745.143	-0.0071
745.459	-0.0036
745.775	-0.0031
746.091	-0.0061
746.406	-0.0127
746.722	-0.0073
747.038	-0.0039
747.353	-0.0022
747.669	-0.0104
747.984	-0.0125
748.3	-0.0112
748.615	-0.0083
748.93	-0.0058
749.246	-0.0054
749.561	-0.0067
749.876	-0.0111
750.191	-0.0112
750.506	-0.0068
750.821	0.0003
751.136	0.0031
751.451	0.0007
751.766	-0.0009
752.08	-0.0047
752.395	-0.0042
752.71	-0.0088
753.024	-0.0053
753.339	-0.002
753.653	-0.0025
753.968	-0.0056
754.282	-0.0083
754.596	-0.0072
754.911	-0.004
755.225	-0.0033
755.539	-0.0046
755.853	-0.0084
756.167	-0.0087
756.481	-0.0053
756.795	-0.0064
757.109	-0.0101
757.423	-0.01
757.736	-0.0097
758.05	-0.0083
758.364	-0.0106
758.677	-0.0067
758.991	-0.0042
759.304	-0.0078
759.618	-0.0058
759.931	-0.0062
760.244	-0.0002
760.558	-0.0019
760.871	-0.0036
761.184	-0.0075
761.497	-0.0118
761.81	-0.0116
762.123	-0.0087
762.436	-0.0042
762.749	0.0004
763.062	-0.0015
763.374	-0.0055
763.687	-0.0124
764	-0.012
764.312	-0.009
764.625	-0.0067
764.937	-0.005
765.25	-0.0078
765.562	-0.0044
765.874	-0.007
766.186	-0.0058
766.499	-0.0073
766.811	-0.0033
767.123	-0.0033
767.435	-0.0049
767.747	-0.0068
768.059	-0.0059
768.37	-0.0032
768.682	-0.0025
768.994	-0.0048
769.306	-0.0069
769.617	-0.0094
769.929	-0.0071
770.24	-0.006
770.552	-0.0013
770.863	-0.0005
771.174	-0.0028
771.486	-0.007
771.797	-0.009
772.108	-0.0091
772.419	-0.0063
772.73	-0.0049
773.041	-0.0055
773.352	-0.0081
773.663	-0.0105
773.974	-0.0096
774.285	-0.0131
774.595	-0.0126
774.906	-0.01
775.217	-0.005
775.527	-0.0024
775.838	-0.0029
776.148	-0.0068
776.458	-0.0041
776.769	-0.0109
777.079	-0.0086
777.389	-0.0181
777.699	-0.0099
778.009	-0.0088
778.319	-0.0002
778.629	-0.0004
778.939	-0.0019
779.249	-0.0033
779.559	-0.0075
779.869	-0.0056
780.178	-0.0017
780.488	-0.0044
780.798	-0.0065
781.107	-0.0156
781.417	-0.01
781.726	-0.0057
782.035	0.0001
782.345	0.0023
782.654	0.0005
782.963	-0.0045
783.272	-0.003
783.581	-0.0012
783.89	-0.0042
784.199	-0.0104
784.508	-0.0114
784.817	-0.0045
785.126	-0.0043
785.434	-0.0045
785.743	-0.0098
786.052	-0.0065
786.36	-0.0056
786.669	-0.0015
786.977	-0.0008
787.285	0.0015
787.594	0.0019
787.902	-0.0007
788.21	-0.0024
788.518	-0.002
788.826	0.0022
789.135	0.0014
789.442	-0.0001
789.75	-0.0029
790.058	-0.0049
790.366	-0.0109
790.674	-0.0129
790.981	-0.0123
791.289	-0.0085
791.597	-0.006
791.904	-0.007
792.212	-0.005
792.519	-0.008
792.826	-0.0078
793.134	-0.0035
793.441	-0.0044
793.748	-0.0057
794.055	-0.0113
794.362	-0.0107
794.669	-0.0082
794.976	-0.0046
795.283	-0.0005
795.59	0.0053
795.897	0.0008
796.203	0.0015
796.51	0.002
796.817	-0.0036
797.123	-0.0071
797.43	-0.0131
797.736	-0.0085
798.042	-0.009
798.349	-0.0054
798.655	-0.0037
798.961	-0.0021
799.267	-0.0031
799.573	-0.007
799.879	0.0012
800.185	0.0025
800.491	0.0071
800.797	-0.0035
801.103	-0.0059
801.408	-0.014
801.714	-0.0142
802.02	-0.0169
802.325	-0.0135
802.631	-0.0167
802.936	-0.0214
803.242	-0.0227
803.547	-0.0148
803.852	-0.0063
804.157	-0.0007
804.462	0.0029
804.768	0.008
805.073	0.0065
805.378	-0.0072
805.682	-0.0144
805.987	-0.0116
806.292	-0.0018
806.597	0.0006
806.902	-0.0042
807.206	-0.0095
807.511	-0.0185
807.815	-0.0168
808.12	-0.008
808.424	0.004
808.728	0.0055
809.033	0.0043
809.337	0.0022
809.641	-0.0008
809.945	-0.0057
810.249	-0.0079
810.553	0.0023
810.857	0.003
811.161	0.0032
811.465	-0.0058
811.768	-0.0122
812.072	-0.0124
812.376	-0.0176
812.679	-0.0109
812.983	-0.0092
813.286	-0.0099
813.59	-0.0138
813.893	-0.0154
814.196	-0.0119
814.499	-0.0177
814.803	-0.0174
815.106	-0.0123
815.409	0.0015
815.712	0.0029
816.015	-0.0012
816.318	-0.0057
816.62	-0.0041
816.923	-0.0021
817.226	-0.0015
817.528	-0.0059
817.831	-0.0107
818.133	-0.017
818.436	-0.02
818.738	-0.0194
819.041	-0.0084
819.343	0.0002
819.645	0.0042
819.947	0.0069
820.249	0.0066
820.551	0.0093
820.853	-0.0055
821.155	-0.0206
821.457	-0.0239
821.759	-0.0119
822.061	-0.0004
822.362	-0.0055
822.664	-0.0102
822.966	-0.0184
823.267	-0.0126
823.569	-0.0181
823.87	-0.0103
824.171	-0.0164
824.473	-0.0128
824.774	-0.0143
825.075	-0.0082
825.376	-0.0051
825.677	-0.0002
825.978	-0
826.279	0.0027
826.58	-0.0116
826.881	-0.0208
827.181	-0.0227
827.482	-0.0057
827.783	0.004
828.083	0.004
828.384	-0.0055
828.684	-0.0046
828.985	-0.0112
829.285	-0.013
829.585	-0.0149
829.885	-0.0069
830.185	-0.0006
830.486	0.0064
830.786	0.0058
831.086	-0.0007
831.385	-0.0084
831.685	-0.0124
831.985	-0.0101
832.285	-0.0077
832.585	-0.0121
832.884	-0.0113
833.184	-0.0101
833.483	-0.0045
833.783	-0.0055
834.082	-0.0144
834.381	-0.0062
834.681	-0.0004
834.98	0.0031
835.279	-0.0116
835.578	-0.0243
835.877	-0.0158
836.176	-0.0128
836.475	0.0055
836.774	-0.0174
837.072	-0.0128
837.371	-0.0289
837.67	-0.0095
837.968	-0.0145
838.267	-0.0176
838.565	-0.0203
838.864	-0.0138
839.162	-0.0083
839.46	-0.0095
839.759	-0.0106
840.057	-0.0074
840.355	0.0064
840.653	0.0059
840.951	0.0089
841.249	0.0002
841.547	0.0002
841.845	0.004
842.142	-0.0018
842.44	-0.0141
842.738	-0.0228
843.035	-0.0215
843.333	-0.0166
843.63	-0.0186
843.928	-0.0235
844.225	-0.0107
844.522	0.0009
844.82	-0.0015
845.117	-0.0102
845.414	-0.0191
845.711	-0.025
846.008	-0.0309
846.305	-0.0292
846.602	-0.0143
846.898	-0.0114
847.195	-0.0132
847.492	-0.0072
847.788	-0.0085
848.085	-0.0053
848.382	-0.0118
848.678	-0.0033
848.974	-0.0064
849.271	0.0001
849.567	-0.0201
849.863	-0.019
850.159	-0.0223
850.455	-0.0036
850.751	0.0018
851.047	-0.0064
851.343	-0.0114
851.639	-0.0209
851.935	-0.0184
852.23	-0.0272
852.526	-0.0233
852.822	-0.0189
853.117	-0.01
853.413	-0.0164
853.708	-0.0292
854.003	-0.0261
854.299	-0.0125
854.594	-0.0209
854.889	-0.0335
855.184	-0.0378
855.479	-0.0329
855.774	-0.0286
856.069	-0.0153
856.364	-0.0073
856.659	-0.0059
856.954	-0.0278
857.248	-0.0245
857.543	-0.0169
857.837	-0.0099
858.132	-0.0044
858.426	-0.0024
858.721	0.0053
859.015	-0.0028
859.309	0.01
859.604	-0.0085
859.898	0.003
860.192	-0.0067
860.486	0.0075
860.78	0.0066
861.074	0.0034
861.367	-0.0115
861.661	-0.0168
861.955	-0.02
862.248	0.0063
862.542	-0.0004
862.836	0.0156
863.129	0.0219
863.422	0.0235
863.716	0.015
864.009	-0.0141
864.302	-0.0246
864.595	-0.0279
864.889	-0.0156
865.182	0.0087
865.475	-0.004
865.767	-0.0237
866.06	-0.0295
866.353	-0.0159
866.646	-0.0121
866.938	-0.0204
867.231	-0.009
867.524	0.0043
867.816	-0.0078
868.109	-0.0274
868.401	-0.0415
868.693	-0.0258
868.985	-0.0175
869.278	-0.0091
869.57	0.0022
869.862	0.0001
870.154	-0.0071
870.446	-0.025
870.738	-0.0478
871.029	-0.0464
871.321	-0.0416
871.613	-0.0239
871.904	-0.0178
872.196	-0.0224
872.487	-0.0201
872.779	-0.0099
873.07	0.0088
873.362	-0.0015
873.653	-0.0248
873.944	-0.0358
874.235	-0.037
874.526	-0.0226
874.817	-0.0046
875.108	0.0033
875.399	-0.0013
875.69	-0.0088
875.981	-0.0241
876.271	-0.015
876.562	-0.0382
876.853	-0.0187
877.143	-0.0603
877.434	-0.0592
877.724	-0.0789
878.014	-0.0218
878.305	-0.0149
878.595	-0.0007
878.885	0.0079
879.175	0.0233
879.465	0.0176
879.755	-0.0157
880.045	-0.0378
880.335	-0.0489
880.624	-0.0599
880.914	-0.0599
