Data from DIblank3_080617_1a_Absorbance_16-15-11-733.txt Node
Date: Sun Aug 06 16:15:11 MDT 2017
User: Tank Lab
Spectrometer: FLMS01220
Trigger mode: 0
Integration Time (sec): 1.000000E-1
Scans to average: 10
Electric dark correction enabled: true
Nonlinearity correction enabled: false
Boxcar width: 1
XAxis mode: Wavelengths
Number of Pixels in Spectrum: 2048
>>>>>Begin Spectral Data<<<<<
179.47	-0.0501
179.856	-0.0501
180.241	0.0157
180.626	0.2378
181.011	0.7408
181.396	0.1806
181.781	-0.5151
182.166	0.0212
182.551	-0.0186
182.936	0.0688
183.321	-0.0968
183.706	-0.479
184.091	-0.006
184.476	-0
184.86	0.6535
185.245	-0
185.63	0.039
186.015	0.4588
186.399	-0.0654
186.784	-0.2636
187.169	0.425
187.553	0.0337
187.938	-0
188.322	-0.0876
188.707	-0.0621
189.091	-0.0313
189.475	-0.0348
189.86	-0.0208
190.244	-0.011
190.629	-0.013
191.013	-0.0097
191.397	-0.0105
191.781	-0.0035
192.165	-0.0084
192.55	-0.0074
192.934	-0.003
193.318	-0.0012
193.702	-0.0055
194.086	-0.0045
194.47	0.0008
194.854	0.0028
195.238	0.0047
195.622	0.0017
196.006	0.0045
196.389	0.0034
196.773	0.0098
197.157	0.008
197.541	0.0079
197.924	0.0012
198.308	0.0004
198.692	-0.0002
199.075	0.0003
199.459	-0
199.843	0.0029
200.226	0.0029
200.61	0.0018
200.993	-0.0017
201.376	-0.0029
201.76	-0.0007
202.143	-0.0015
202.527	-0.0001
202.91	0.0004
203.293	0.0011
203.676	0.0021
204.059	0.0012
204.443	0.0021
204.826	0.0003
205.209	0.0014
205.592	0.002
205.975	0.0051
206.358	0.0056
206.741	0.0057
207.124	0.0042
207.507	0.0033
207.89	0.0021
208.273	0.0033
208.655	0.0028
209.038	0.0025
209.421	0.0014
209.804	0.0029
210.186	0.0055
210.569	0.0069
210.951	0.0058
211.334	0.002
211.717	-0.0007
212.099	-0.0007
212.482	0.0006
212.864	0.0025
213.246	0.0025
213.629	0.0003
214.011	0.0003
214.393	-0.0002
214.776	0.0015
215.158	-0.0001
215.54	0.0009
215.922	0.0025
216.305	0.0045
216.687	0.0031
217.069	0.002
217.451	0.0009
217.833	0.0009
218.215	0.0012
218.597	-0.0009
218.979	0.0007
219.361	-0.0011
219.742	0.0022
220.124	0.001
220.506	0.0034
220.888	0.0033
221.27	0.0031
221.651	0.0026
222.033	0.0012
222.415	0.0019
222.796	0.0024
223.178	0.0032
223.559	0.0028
223.941	0.0018
224.322	0.0025
224.704	0.0027
225.085	0.0038
225.466	0.0017
225.848	0.0009
226.229	-0.0008
226.61	-0.0007
226.992	-0.0004
227.373	0.0015
227.754	0.0027
228.135	0.0033
228.516	0.0033
228.897	0.0026
229.278	0.002
229.659	0.002
230.04	0.0032
230.421	0.0028
230.802	0.0026
231.183	0.0002
231.564	0.0011
231.944	0.001
232.325	0.0012
232.706	0.0004
233.087	-0.0007
233.467	-0.0007
233.848	-0.0004
234.229	-0.0001
234.609	0.001
234.99	0.0016
235.37	0.0021
235.751	0.0035
236.131	0.0017
236.511	0.0014
236.892	-0.0003
237.272	0.0007
237.652	-0.0004
238.033	-0.0013
238.413	-0.0011
238.793	-0.0003
239.173	0.0012
239.553	0.0002
239.933	-0.0009
240.313	-0.0021
240.694	-0.0021
241.074	0.0002
241.453	0.0011
241.833	0.0007
242.213	-0.0009
242.593	-0.0008
242.973	-0.0001
243.353	0
243.732	-0.0007
244.112	-0.0019
244.492	-0.0025
244.872	-0.0034
245.251	-0.0026
245.631	-0.0024
246.01	-0.0018
246.39	-0.0011
246.769	-0.0012
247.149	-0.0008
247.528	-0.001
247.908	-0.0003
248.287	-0.0007
248.666	-0.0008
249.045	-0.0007
249.425	-0.0001
249.804	0
250.183	-0.0007
250.562	-0.0009
250.941	-0.0013
251.32	-0.0021
251.699	-0.0014
252.078	-0.0004
252.457	-0.0002
252.836	-0.0003
253.215	-0.0009
253.594	-0.0005
253.973	-0.0008
254.352	-0.0017
254.731	-0.0017
255.109	-0.0018
255.488	-0.0005
255.867	0.0001
256.245	-0.0006
256.624	-0.0009
257.002	0.0007
257.381	0.0008
257.759	0.0006
258.138	-0.0016
258.516	-0.0023
258.895	-0.003
259.273	-0.0023
259.651	-0.0011
260.03	-0.0004
260.408	0.0006
260.786	0.0002
261.164	-0.0003
261.542	-0.0027
261.921	-0.0034
262.299	-0.0035
262.677	-0.0007
263.055	-0.0009
263.433	-0.001
263.811	-0.0033
264.188	-0.0017
264.566	-0.0017
264.944	-0.0013
265.322	-0.002
265.7	-0.0013
266.077	-0.0011
266.455	0.0001
266.833	0.0008
267.21	0.001
267.588	-0.0002
267.966	-0.0016
268.343	-0.002
268.721	-0.0024
269.098	-0.0013
269.475	0.0001
269.853	0.0016
270.23	0.0008
270.607	-0.0014
270.985	-0.0015
271.362	-0.0025
271.739	-0.0018
272.116	-0.0028
272.494	-0.0022
272.871	-0.0013
273.248	-0.003
273.625	-0.003
274.002	-0.0024
274.379	-0
274.756	0.0003
275.132	0.0003
275.509	-0.0004
275.886	-0.001
276.263	-0.0018
276.64	-0.0022
277.016	-0.0015
277.393	-0.0015
277.77	-0.0018
278.146	-0.0014
278.523	-0.0028
278.899	-0.0033
279.276	-0.0034
279.652	-0.0009
280.029	0.0005
280.405	0.0007
280.782	-0.0023
281.158	-0.0021
281.534	-0.0037
281.91	-0.0023
282.287	-0.0035
282.663	-0.002
283.039	-0.0012
283.415	0.0006
283.791	0.0007
284.167	0.0001
284.543	-0.0003
284.919	-0.0021
285.295	-0.0026
285.671	-0.0026
286.047	-0.0018
286.423	-0.0017
286.799	-0.0013
287.174	-0.0002
287.55	-0.0002
287.926	-0.0011
288.301	-0.0021
288.677	-0.0016
289.053	-0.0014
289.428	-0.0024
289.804	-0.0016
290.179	-0.0009
290.555	0.0004
290.93	-0.0004
291.305	-0.0017
291.681	-0.0014
292.056	-0.0008
292.431	0.0015
292.806	0.0009
293.182	0.0001
293.557	-0.0014
293.932	-0.0017
294.307	-0.0011
294.682	-0.0022
295.057	-0.002
295.432	-0.0027
295.807	-0.001
296.182	-0.0013
296.557	-0.0005
296.932	-0.0012
297.306	-0.0007
297.681	-0.0011
298.056	-0.0015
298.43	-0.0019
298.805	-0.002
299.18	-0.0015
299.554	-0.0013
299.929	-0.0021
300.303	-0.0017
300.678	-0.0021
301.052	-0.001
301.427	-0.0009
301.801	0
302.175	-0.0012
302.55	-0.0014
302.924	-0.0016
303.298	-0.001
303.672	-0.0011
304.046	-0.0011
304.421	-0.0013
304.795	-0.0022
305.169	-0.0024
305.543	-0.0014
305.917	-0.0004
306.291	0.0006
306.664	-0.0003
307.038	-0.0005
307.412	-0.0001
307.786	0.0011
308.16	0.0005
308.533	-0.0014
308.907	-0.0031
309.281	-0.0029
309.654	-0.0028
310.028	-0.0019
310.401	-0.0026
310.775	-0.0018
311.148	-0.0033
311.522	-0.0022
311.895	-0.0032
312.268	-0.0015
312.642	-0.0021
313.015	-0.0006
313.388	-0.0017
313.761	-0.0009
314.135	-0.0014
314.508	-0.0009
314.881	-0.0014
315.254	-0.0028
315.627	-0.0028
316	-0.0029
316.373	-0.0017
316.746	-0.0004
317.118	0.0003
317.491	0.0005
317.864	0.0002
318.237	-0.0002
318.61	0.0001
318.982	-0.0007
319.355	-0.0002
319.727	-0.001
320.1	-0.001
320.473	-0.0018
320.845	-0.0003
321.218	-0.0005
321.59	-0.0002
321.962	-0.0021
322.335	-0.0013
322.707	-0.0015
323.079	-0.0004
323.452	-0.0019
323.824	-0.002
324.196	-0.0018
324.568	0.0007
324.94	0.0014
325.312	0.0022
325.684	0.001
326.056	-0.0004
326.428	-0.0018
326.8	-0.0013
327.172	0.0006
327.544	0.0002
327.915	-0.0006
328.287	-0.0008
328.659	-0
329.031	0.0001
329.402	-0.0015
329.774	-0.0027
330.145	-0.0029
330.517	-0.0013
330.888	-0.0027
331.26	-0.002
331.631	-0.0043
332.003	-0.0013
332.374	-0.0009
332.745	0.0007
333.117	-0.0015
333.488	-0.0034
333.859	-0.0034
334.23	-0.0035
334.601	-0.0011
334.972	-0.001
335.343	-0.0003
335.714	-0.0027
336.085	-0.0029
336.456	-0.0027
336.827	-0.0013
337.198	-0.0016
337.569	-0.0008
337.94	-0.0011
338.31	0.0001
338.681	-0.0006
339.052	-0.0021
339.422	-0.0025
339.793	-0.0044
340.164	-0.0041
340.534	-0.0049
340.905	-0.0041
341.275	-0.0049
341.645	-0.0054
342.016	-0.0048
342.386	-0.0041
342.756	-0.0036
343.127	-0.0033
343.497	-0.0025
343.867	-0.0025
344.237	-0.004
344.607	-0.0037
344.977	-0.003
345.347	-0.0014
345.717	-0.001
346.087	-0.0013
346.457	-0.0013
346.827	-0.0034
347.197	-0.0042
347.567	-0.0052
347.936	-0.005
348.306	-0.0034
348.676	-0.0017
349.046	-0.0019
349.415	-0.0016
349.785	-0.0028
350.154	-0.002
350.524	-0.0015
350.893	-0.0011
351.263	0.0002
351.632	-0.0003
352.001	-0.002
352.371	-0.0015
352.74	-0.0006
353.109	0.0016
353.478	0.0013
353.847	-0.0008
354.217	-0.0015
354.586	-0.0034
354.955	-0.0025
355.324	-0.0035
355.693	-0.0021
356.062	-0.0007
356.43	-0.0001
356.799	-0.0015
357.168	-0.0035
357.537	-0.0028
357.906	-0.0023
358.274	-0.0016
358.643	-0.0012
359.011	-0.0016
359.38	-0.0022
359.749	-0.0018
360.117	-0.0016
360.486	-0.0024
360.854	-0.004
361.222	-0.0044
361.591	-0.0043
361.959	-0.0035
362.327	-0.0037
362.695	-0.0037
363.064	-0.0048
363.432	-0.005
363.8	-0.0043
364.168	-0.0046
364.536	-0.0019
364.904	-0.0005
365.272	0.0006
365.64	-0
366.008	-0.002
366.376	-0.0036
366.743	-0.0038
367.111	-0.0015
367.479	0.0019
367.847	0.0017
368.214	-0.0014
368.582	-0.0022
368.949	-0.0021
369.317	0.0004
369.684	-0.0014
370.052	-0.002
370.419	-0.0014
370.787	0.0005
371.154	-0.0006
371.521	-0.0031
371.889	-0.0036
372.256	-0.0005
372.623	-0.002
372.99	-0.0029
373.357	-0.0046
373.724	-0.003
374.091	-0.0035
374.458	-0.0042
374.825	-0.0032
375.192	-0.0029
375.559	-0.0029
375.926	-0.0034
376.293	-0.004
376.659	-0.004
377.026	-0.0031
377.393	-0.0013
377.759	-0.0012
378.126	-0.0031
378.492	-0.0055
378.859	-0.0061
379.225	-0.0058
379.592	-0.0038
379.958	-0.0029
380.325	-0.0026
380.691	-0.0023
381.057	-0.003
381.423	-0.0029
381.79	-0.005
382.156	-0.0041
382.522	-0.0034
382.888	-0.003
383.254	-0.0045
383.62	-0.0054
383.986	-0.0056
384.352	-0.0034
384.718	-0.0038
385.084	-0.0016
385.449	-0.0021
385.815	-0.0029
386.181	-0.0033
386.547	-0.0041
386.912	-0.004
387.278	-0.007
387.643	-0.0078
388.009	-0.0051
388.374	-0.0043
388.74	-0.0004
389.105	-0.0016
389.471	0.0011
389.836	-0.0013
390.201	0.0002
390.566	0.0001
390.932	0.0008
391.297	0.0007
391.662	-0.0013
392.027	-0.0023
392.392	-0.0045
392.757	-0.0039
393.122	-0.0036
393.487	-0.0031
393.852	-0.0038
394.217	-0.0035
394.582	-0.0044
394.946	-0.0031
395.311	-0.0036
395.676	-0.0016
396.04	-0.0032
396.405	-0.0036
396.77	-0.0059
397.134	-0.0061
397.499	-0.0049
397.863	-0.0036
398.227	-0.0031
398.592	-0.0025
398.956	-0.0024
399.32	-0.0019
399.685	-0.0032
400.049	-0.0035
400.413	-0.0049
400.777	-0.004
401.141	-0.0047
401.505	-0.0031
401.869	-0.0045
402.233	-0.0025
402.597	-0.0035
402.961	-0.0035
403.325	-0.0054
403.689	-0.0054
404.053	-0.0048
404.416	-0.0053
404.78	-0.0046
405.144	-0.0039
405.507	-0.0039
405.871	-0.0037
406.234	-0.0045
406.598	-0.0032
406.961	-0.0022
407.325	-0.0038
407.688	-0.0057
408.051	-0.006
408.415	-0.0039
408.778	-0.0025
409.141	-0.0032
409.504	-0.0041
409.867	-0.0022
410.23	-0.0029
410.593	-0.0036
410.956	-0.006
411.319	-0.0049
411.682	-0.0026
412.045	-0.001
412.408	-0.0011
412.771	-0.002
413.134	-0.0024
413.496	-0.0031
413.859	-0.0042
414.222	-0.0034
414.584	-0.0022
414.947	-0.0007
415.309	-0.0026
415.672	-0.0042
416.034	-0.0037
416.396	-0.0034
416.759	-0.0024
417.121	-0.0007
417.483	0.0006
417.846	-0.0004
418.208	-0.0012
418.57	-0.0032
418.932	-0.0047
419.294	-0.0071
419.656	-0.003
420.018	0.0002
420.38	0.0006
420.742	-0.0029
421.104	-0.0054
421.466	-0.0027
421.827	-0.0016
422.189	0.0003
422.551	-0.0008
422.912	-0.0011
423.274	-0.001
423.636	-0.0034
423.997	-0.0053
424.359	-0.0046
424.72	-0.003
425.081	-0.0029
425.443	-0.0038
425.804	-0.0041
426.165	-0.0021
426.527	-0.0016
426.888	-0.0018
427.249	-0.0005
427.61	-0.0007
427.971	-0.0018
428.332	-0.0052
428.693	-0.0056
429.054	-0.0031
429.415	-0.0022
429.776	-0.0018
430.137	-0.0054
430.498	-0.0051
430.858	-0.0059
431.219	-0.0021
431.58	-0.0003
431.94	0.0019
432.301	0.0003
432.661	0.0003
433.022	-0.0015
433.382	-0.0028
433.743	-0.0044
434.103	-0.003
434.463	-0.0015
434.824	-0.0031
435.184	-0.0054
435.544	-0.0035
435.904	-0.0007
436.264	-0.0014
436.624	-0.0034
436.985	-0.0044
437.345	-0.0035
437.704	-0.0055
438.064	-0.0043
438.424	-0.0013
438.784	0.0003
439.144	0.0008
439.504	-0.0021
439.863	-0.0012
440.223	-0.0035
440.583	-0.0039
440.942	-0.0057
441.302	-0.0035
441.661	-0.0007
442.021	-0.0001
442.38	-0.0007
442.739	-0.0019
443.099	0
443.458	-0.0013
443.817	0
444.176	-0.0005
444.536	-0.0025
444.895	-0.0045
445.254	-0.0043
445.613	-0.0023
445.972	-0.0018
446.331	-0.0038
446.69	-0.0043
447.049	-0.0032
447.407	-0.0038
447.766	0.0001
448.125	0.0005
448.484	0.0017
448.842	-0.0007
449.201	-0.0024
449.559	-0.0036
449.918	-0.0058
450.276	-0.0055
450.635	-0.0048
450.993	-0.0049
451.352	-0.006
451.71	-0.0047
452.068	-0.0047
452.426	-0.0023
452.785	-0.0064
453.143	-0.0057
453.501	-0.0073
453.859	-0.0042
454.217	-0.0045
454.575	-0.0053
454.933	-0.0051
455.291	-0.0038
455.649	-0.0053
456.006	-0.0044
456.364	-0.0038
456.722	0.0004
457.079	-0.0006
457.437	-0.0011
457.795	-0.0036
458.152	-0.0039
458.51	-0.0025
458.867	-0.0003
459.225	0.0001
459.582	0.0003
459.939	0.0003
460.297	0.0004
460.654	-0.0038
461.011	-0.0051
461.368	-0.0052
461.725	-0.0017
462.082	-0.0023
462.44	-0.0009
462.797	-0.001
463.153	-0.0004
463.51	-0.0004
463.867	-0.0026
464.224	-0.0048
464.581	-0.0074
464.938	-0.0057
465.294	-0.0042
465.651	-0.0036
466.008	-0.0047
466.364	-0.0046
466.721	-0.005
467.077	-0.0038
467.434	-0.0036
467.79	-0.0022
468.146	-0.004
468.503	-0.0035
468.859	-0.0045
469.215	-0.0032
469.571	-0.002
469.927	0.0013
470.284	0.0031
470.64	0.0006
470.996	-0.0019
471.352	-0.0042
471.707	-0.0028
472.063	-0.0013
472.419	-0.0024
472.775	-0.003
473.131	-0.0052
473.486	-0.0042
473.842	-0.0028
474.198	-0.0037
474.553	-0.0021
474.909	-0.0025
475.264	-0.002
475.62	-0.001
475.975	-0.0005
476.331	-0.0002
476.686	-0.0027
477.041	-0.0036
477.396	-0.0018
477.752	-0.0021
478.107	-0.0022
478.462	-0.0047
478.817	-0.0038
479.172	-0.0037
479.527	-0.0014
479.882	-0.0015
480.237	-0.0013
480.591	-0.0022
480.946	-0.0009
481.301	-0.001
481.656	-0.0019
482.01	-0.0037
482.365	-0.0048
482.72	-0.0022
483.074	-0.0009
483.429	-0.0043
483.783	-0.0051
484.137	-0.0048
484.492	-0.001
484.846	-0.0013
485.2	-0.0028
485.555	-0.002
485.909	-0.001
486.263	-0.0026
486.617	-0.0029
486.971	-0.0036
487.325	-0.0009
487.679	-0.0006
488.033	-0.0023
488.387	-0.0036
488.741	-0.0038
489.094	-0.0032
489.448	-0.0038
489.802	-0.0026
490.156	-0.004
490.509	-0.0029
490.863	-0.004
491.216	-0.0021
491.57	-0.0018
491.923	-0.0032
492.277	-0.0042
492.63	-0.0046
492.983	-0.0031
493.337	-0.0039
493.69	-0.0038
494.043	-0.005
494.396	-0.0035
494.749	-0.0053
495.102	-0.0049
495.455	-0.0059
495.808	-0.0052
496.161	-0.005
496.514	-0.0033
496.867	-0.0021
497.22	-0.0032
497.572	-0.0048
497.925	-0.0051
498.278	-0.0031
498.63	-0.0025
498.983	-0.002
499.335	-0.002
499.688	-0.0017
500.04	-0.0021
500.393	-0.0035
500.745	-0.0052
501.097	-0.0043
501.449	-0.0048
501.802	-0.0023
502.154	-0.0045
502.506	-0.0029
502.858	-0.0056
503.21	-0.0058
503.562	-0.005
503.914	-0.0017
504.266	0.0006
504.618	-0.0001
504.969	-0.0005
505.321	-0.0016
505.673	-0.0039
506.025	-0.0036
506.376	-0.0019
506.728	-0.001
507.079	-0.0028
507.431	-0.0044
507.782	-0.0035
508.134	-0.0038
508.485	-0.0051
508.836	-0.0052
509.188	-0.0047
509.539	-0.0036
509.89	-0.0063
510.241	-0.0074
510.592	-0.008
510.943	-0.0072
511.294	-0.0037
511.645	-0.0037
511.996	-0.0019
512.347	-0.0063
512.698	-0.0039
513.049	-0.0062
513.399	-0.0062
513.75	-0.0079
514.101	-0.0062
514.451	-0.0069
514.802	-0.0065
515.152	-0.0069
515.503	-0.0057
515.853	-0.0046
516.203	-0.0046
516.554	-0.0034
516.904	-0.0038
517.254	-0.0031
517.604	-0.0047
517.955	-0.0035
518.305	-0.0011
518.655	0.0002
519.005	-0.0016
519.355	-0.0033
519.705	-0.0041
520.055	-0.0049
520.404	-0.0064
520.754	-0.0053
521.104	-0.0063
521.454	-0.0047
521.803	-0.0049
522.153	-0.0044
522.502	-0.0053
522.852	-0.0072
523.201	-0.0064
523.551	-0.0059
523.9	-0.0029
524.249	-0.0005
524.599	-0.0033
524.948	-0.0057
525.297	-0.0073
525.646	-0.0053
525.995	-0.0041
526.344	-0.0036
526.694	-0.0037
527.042	-0.0036
527.391	-0.0054
527.74	-0.0057
528.089	-0.0085
528.438	-0.0069
528.787	-0.0059
529.135	-0.003
529.484	-0.0039
529.833	-0.006
530.181	-0.0092
530.53	-0.0119
530.878	-0.0098
531.227	-0.0095
531.575	-0.0054
531.923	-0.0046
532.271	-0.003
532.62	-0.0042
532.968	-0.0057
533.316	-0.0046
533.664	-0.0044
534.012	-0.0064
534.36	-0.0079
534.708	-0.0099
535.056	-0.0071
535.404	-0.0036
535.752	0.0011
536.1	-0.0014
536.447	-0.0033
536.795	-0.0056
537.143	-0.0033
537.49	-0.0044
537.838	-0.0055
538.185	-0.0094
538.533	-0.0092
538.88	-0.0076
539.228	-0.0027
539.575	-0.0009
539.922	-0.0032
540.269	-0.0039
540.617	-0.0055
540.964	-0.0051
541.311	-0.0063
541.658	-0.0063
542.005	-0.006
542.352	-0.0066
542.699	-0.0077
543.045	-0.0089
543.392	-0.0059
543.739	-0.0054
544.086	-0.005
544.432	-0.0064
544.779	-0.0053
545.126	-0.0051
545.472	-0.0042
545.819	-0.003
546.165	-0.0004
546.512	-0.0042
546.858	-0.0059
547.204	-0.0102
547.55	-0.0082
547.897	-0.0051
548.243	-0.0054
548.589	-0.006
548.935	-0.0098
549.281	-0.008
549.627	-0.0069
549.973	-0.0069
550.319	-0.0064
550.665	-0.0044
551.01	-0.0045
551.356	-0.0041
551.702	-0.0057
552.048	-0.0072
552.393	-0.0073
552.739	-0.0088
553.084	-0.0064
553.43	-0.0087
553.775	-0.0059
554.12	-0.0043
554.466	-0.0016
554.811	-0.0055
555.156	-0.0055
555.502	-0.0067
555.847	-0.0042
556.192	-0.006
556.537	-0.0062
556.882	-0.0082
557.227	-0.0076
557.572	-0.0064
557.917	-0.0046
558.261	-0.0068
558.606	-0.0068
558.951	-0.0075
559.295	-0.0057
559.64	-0.0081
559.985	-0.0089
560.329	-0.0078
560.674	-0.0058
561.018	-0.0084
561.363	-0.0101
561.707	-0.0116
562.051	-0.009
562.395	-0.008
562.74	-0.0028
563.084	-0.0039
563.428	-0.0049
563.772	-0.0072
564.116	-0.0066
564.46	-0.0046
564.804	-0.0056
565.148	-0.0031
565.492	-0.0038
565.835	-0.0008
566.179	-0.0013
566.523	-0.0043
566.866	-0.0103
567.21	-0.015
567.554	-0.0148
567.897	-0.0089
568.24	-0.0067
568.584	-0.0079
568.927	-0.0096
569.271	-0.0067
569.614	-0.0069
569.957	-0.006
570.3	-0.0071
570.643	-0.0047
570.986	-0.006
571.329	-0.007
571.672	-0.0043
572.015	-0.0038
572.358	-0.0039
572.701	-0.0073
573.044	-0.0085
573.387	-0.0064
573.729	-0.005
574.072	-0.0026
574.414	-0.0039
574.757	-0.0025
575.099	-0.0062
575.442	-0.0072
575.784	-0.0078
576.127	-0.0064
576.469	-0.0079
576.811	-0.0094
577.153	-0.0071
577.496	-0.0064
577.838	-0.0052
578.18	-0.0093
578.522	-0.0096
578.864	-0.0114
579.206	-0.0084
579.548	-0.0071
579.889	-0.0085
580.231	-0.0054
580.573	-0.0016
580.915	-0.0014
581.256	-0.0074
581.598	-0.0113
581.939	-0.0128
582.281	-0.0077
582.622	-0.0082
582.964	-0.0072
583.305	-0.0087
583.646	-0.01
583.988	-0.0043
584.329	-0.0032
584.67	-0.0054
585.011	-0.0108
585.352	-0.0135
585.693	-0.0092
586.034	-0.0081
586.375	-0.0087
586.716	-0.0096
587.057	-0.0056
587.398	-0.0029
587.738	-0.0011
588.079	-0.0046
588.42	-0.0056
588.76	-0.0105
589.101	-0.0086
589.441	-0.0076
589.782	-0.0026
590.122	-0.0048
590.463	-0.0059
590.803	-0.0085
591.143	-0.0082
591.483	-0.0096
591.823	-0.0087
592.164	-0.0093
592.504	-0.0089
592.844	-0.0083
593.184	-0.0063
593.523	-0.0051
593.863	-0.0064
594.203	-0.0075
594.543	-0.0057
594.883	-0.0075
595.222	-0.0038
595.562	-0.0011
595.901	-0.0012
596.241	-0.0037
596.58	-0.008
596.92	-0.0081
597.259	-0.0092
597.599	-0.0081
597.938	-0.0051
598.277	-0.0068
598.616	-0.0086
598.955	-0.0125
599.295	-0.0115
599.634	-0.0099
599.973	-0.0066
600.312	-0.0051
600.65	-0.0068
600.989	-0.0085
601.328	-0.0082
601.667	-0.0029
602.005	-0.0087
602.344	-0.0108
602.683	-0.0122
603.021	-0.0073
603.36	-0.007
603.698	-0.0105
604.037	-0.0101
604.375	-0.0082
604.713	-0.0055
605.052	-0.0019
605.39	-0.0047
605.728	-0.0079
606.066	-0.0072
606.404	-0.0075
606.742	-0.0065
607.08	-0.0066
607.418	-0.008
607.756	-0.0069
608.094	-0.0064
608.431	-0.006
608.769	-0.0048
609.107	-0.0103
609.444	-0.0093
609.782	-0.0105
610.12	-0.0068
610.457	-0.0066
610.794	-0.0095
611.132	-0.0124
611.469	-0.0143
611.806	-0.01
612.144	-0.0106
612.481	-0.0059
612.818	-0.0074
613.155	-0.0077
613.492	-0.0086
613.829	-0.0068
614.166	-0.006
614.503	-0.0054
614.84	-0.0085
615.176	-0.0065
615.513	-0.0068
615.85	-0.0074
616.187	-0.0069
616.523	-0.0084
616.86	-0.0091
617.196	-0.0096
617.533	-0.0041
617.869	-0.0026
618.205	-0.0045
618.542	-0.0086
618.878	-0.0126
619.214	-0.0084
619.55	-0.011
619.886	-0.0064
620.222	-0.0109
620.558	-0.0068
620.894	-0.0079
621.23	-0.0076
621.566	-0.0107
621.902	-0.0107
622.238	-0.0106
622.573	-0.0082
622.909	-0.0101
623.244	-0.0118
623.58	-0.0127
623.916	-0.0113
624.251	-0.0083
624.586	-0.0088
624.922	-0.0073
625.257	-0.0094
625.592	-0.0073
625.927	-0.0088
626.263	-0.0072
626.598	-0.0109
626.933	-0.0125
627.268	-0.0089
627.603	-0.0089
627.938	-0.0094
628.272	-0.0125
628.607	-0.0121
628.942	-0.0094
629.277	-0.0133
629.611	-0.0146
629.946	-0.0136
630.281	-0.0108
630.615	-0.0097
630.949	-0.012
631.284	-0.0082
631.618	-0.0035
631.953	-0.0019
632.287	-0.0091
632.621	-0.0155
632.955	-0.016
633.289	-0.013
633.623	-0.0135
633.957	-0.0116
634.291	-0.015
634.625	-0.0098
634.959	-0.0141
635.293	-0.0125
635.627	-0.0118
635.96	-0.0082
636.294	-0.0068
636.627	-0.0126
636.961	-0.0102
637.294	-0.011
637.628	-0.01
637.961	-0.0159
638.295	-0.0158
638.628	-0.0081
638.961	-0.006
639.294	-0.0038
639.628	-0.0091
639.961	-0.009
640.294	-0.0143
640.627	-0.0167
640.96	-0.0205
641.293	-0.0188
641.625	-0.0122
641.958	-0.0086
642.291	-0.0112
642.624	-0.0132
642.956	-0.0111
643.289	-0.0047
643.621	-0.0071
643.954	-0.0133
644.286	-0.013
644.619	-0.0117
644.951	-0.0085
645.283	-0.0081
645.616	-0.0084
645.948	-0.0053
646.28	-0.0037
646.612	-0.0036
646.944	-0.0045
647.276	-0.0101
647.608	-0.0141
647.94	-0.0167
648.272	-0.0141
648.603	-0.0126
648.935	-0.016
649.267	-0.013
649.598	-0.0124
649.93	-0.0052
650.261	-0.0063
650.593	-0.0072
650.924	-0.0077
651.256	-0.0062
651.587	-0.0063
651.918	-0.0055
652.25	-0.0091
652.581	-0.0085
652.912	-0.0104
653.243	-0.011
653.574	-0.0102
653.905	-0.0074
654.236	-0.0062
654.567	-0.0073
654.897	-0.0132
655.228	-0.0152
655.559	-0.0106
655.89	-0.0078
656.22	-0.003
656.551	-0.0082
656.881	-0.0086
657.212	-0.0123
657.542	-0.0113
657.872	-0.0083
658.203	-0.0101
658.533	0.0114
658.863	0.0055
659.193	-0.0064
659.523	-0.0136
659.853	-0.0265
660.183	-0.0153
660.513	-0.0156
660.843	-0.0108
661.173	-0.0118
661.503	-0.0065
661.833	-0.0113
662.162	-0.0099
662.492	-0.0121
662.822	-0.0123
663.151	-0.0124
663.481	-0.0119
663.81	-0.009
664.139	-0.0098
664.469	-0.0063
664.798	-0.0017
665.127	-0.0036
665.456	-0.0085
665.785	-0.0125
666.114	-0.0125
666.443	-0.0137
666.772	-0.0156
667.101	-0.0167
667.43	-0.0165
667.759	-0.0121
668.088	-0.0113
668.416	-0.0137
668.745	-0.0164
669.074	-0.0155
669.402	-0.0143
669.731	-0.0154
670.059	-0.0155
670.388	-0.0132
670.716	-0.0133
671.044	-0.014
671.372	-0.0166
671.701	-0.0114
672.029	-0.0098
672.357	-0.0073
672.685	-0.0074
673.013	-0.006
673.341	-0.0077
673.669	-0.0145
673.996	-0.0129
674.324	-0.0058
674.652	-0.0025
674.98	-0.0059
675.307	-0.0095
675.635	-0.0096
675.962	-0.0059
676.29	-0.0071
676.617	-0.0073
676.945	-0.0084
677.272	-0.0109
677.599	-0.0104
677.926	-0.0104
678.253	-0.0071
678.581	-0.0083
678.908	-0.0087
679.235	-0.0081
679.561	-0.013
679.888	-0.0169
680.215	-0.017
680.542	-0.0172
680.869	-0.0153
681.195	-0.02
681.522	-0.0147
681.849	-0.0117
682.175	-0.0082
682.502	-0.0076
682.828	-0.0099
683.154	-0.0071
683.481	-0.0092
683.807	-0.0091
684.133	-0.0149
684.459	-0.018
684.785	-0.0136
685.111	-0.0132
685.437	-0.0114
685.763	-0.0185
686.089	-0.0159
686.415	-0.0141
686.741	-0.0096
687.067	-0.0105
687.392	-0.0119
687.718	-0.0153
688.043	-0.0127
688.369	-0.0074
688.694	-0.006
689.02	-0.0072
689.345	-0.0155
689.67	-0.0181
689.996	-0.0162
690.321	-0.009
690.646	-0.0064
690.971	-0.008
691.296	-0.0094
691.621	-0.0078
691.946	-0.0095
692.271	-0.0096
692.596	-0.0103
692.921	-0.0093
693.245	-0.0066
693.57	-0.0109
693.895	-0.0092
694.219	-0.0129
694.544	-0.0101
694.868	-0.0126
695.193	-0.0143
695.517	-0.0133
695.841	-0.0124
696.166	-0.0086
696.49	-0.0084
696.814	-0.0069
697.138	-0.0051
697.462	-0.0013
697.786	-0.0062
698.11	-0.007
698.434	-0.0135
698.758	-0.0135
699.081	-0.0209
699.405	-0.0149
699.729	-0.0094
700.052	-0.0057
700.376	-0.0143
700.7	-0.0176
701.023	-0.0211
701.346	-0.0142
701.67	-0.016
701.993	-0.0104
702.316	-0.0109
702.639	-0.0079
702.963	-0.0168
703.286	-0.023
703.609	-0.0181
703.932	-0.0158
704.255	-0.0091
704.578	-0.014
704.9	-0.0069
705.223	-0.0067
705.546	-0.0043
705.868	-0.0056
706.191	-0.0083
706.514	-0.0123
706.836	-0.0128
707.159	-0.0089
707.481	-0.0091
707.803	-0.0125
708.126	-0.0191
708.448	-0.0139
708.77	-0.0057
709.092	-0.0036
709.414	-0.0085
709.736	-0.0123
710.058	-0.0102
710.38	-0.0051
710.702	-0.0089
711.024	-0.0113
711.345	-0.0128
711.667	-0.0125
711.989	-0.0099
712.31	-0.0125
712.632	-0.0124
712.953	-0.0171
713.275	-0.0154
713.596	-0.014
713.917	-0.0123
714.239	-0.0135
714.56	-0.016
714.881	-0.016
715.202	-0.0125
715.523	-0.0044
715.844	0.002
716.165	-0.0042
716.486	-0.0072
716.807	-0.0163
717.128	-0.0151
717.448	-0.0145
717.769	-0.013
718.09	-0.0125
718.41	-0.0142
718.731	-0.0135
719.051	-0.015
719.372	-0.0172
719.692	-0.0182
720.012	-0.0112
720.332	-0.0099
720.653	-0.0076
720.973	-0.0145
721.293	-0.0131
721.613	-0.012
721.933	-0.009
722.253	-0.008
722.573	-0.0129
722.892	-0.0165
723.212	-0.0171
723.532	-0.0126
723.851	-0.0133
724.171	-0.0125
724.491	-0.0165
724.81	-0.0134
725.129	-0.0144
725.449	-0.0126
725.768	-0.0105
726.087	-0.0118
726.407	-0.0103
726.726	-0.0124
727.045	-0.0149
727.364	-0.014
727.683	-0.0125
728.002	-0.0108
728.321	-0.012
728.64	-0.014
728.958	-0.0145
729.277	-0.0149
729.596	-0.0153
729.914	-0.0183
730.233	-0.0151
730.551	-0.016
730.87	-0.014
731.188	-0.02
731.507	-0.0176
731.825	-0.0145
732.143	-0.0087
732.461	-0.0077
732.779	-0.0099
733.097	-0.0128
733.415	-0.0105
733.733	-0.01
734.051	-0.0098
734.369	-0.016
734.687	-0.0162
735.005	-0.017
735.322	-0.0119
735.64	-0.0086
735.957	-0.0065
736.275	-0.0091
736.592	-0.0148
736.91	-0.0186
737.227	-0.0147
737.544	-0.0099
737.862	-0.005
738.179	-0.0075
738.496	-0.0063
738.813	-0.0085
739.13	-0.0094
739.447	-0.0163
739.764	-0.0148
740.081	-0.0165
740.398	-0.0146
740.714	-0.0195
741.031	-0.0186
741.348	-0.0163
741.664	-0.0117
741.981	-0.0073
742.297	-0.0064
742.614	-0.0046
742.93	-0.0081
743.246	-0.0126
743.563	-0.0228
743.879	-0.0242
744.195	-0.0231
744.511	-0.0141
744.827	-0.012
745.143	-0.0082
745.459	-0.0076
745.775	-0.008
746.091	-0.0159
746.406	-0.0232
746.722	-0.0192
747.038	-0.01
747.353	-0.0045
747.669	-0.0124
747.984	-0.0128
748.3	-0.0106
748.615	-0.0089
748.93	-0.0108
749.246	-0.0188
749.561	-0.0165
749.876	-0.0175
750.191	-0.018
750.506	-0.0214
750.821	-0.0203
751.136	-0.0182
751.451	-0.01
751.766	-0.0108
752.08	-0.01
752.395	-0.0146
752.71	-0.0155
753.024	-0.009
753.339	-0.0084
753.653	-0.0124
753.968	-0.0221
754.282	-0.0205
754.596	-0.0138
754.911	-0.009
755.225	-0.0095
755.539	-0.0148
755.853	-0.0181
756.167	-0.0187
756.481	-0.0121
756.795	-0.0129
757.109	-0.0138
757.423	-0.0163
757.736	-0.0133
758.05	-0.0156
758.364	-0.0144
758.677	-0.0119
758.991	-0.0082
759.304	-0.0132
759.618	-0.0146
759.931	-0.0187
760.244	-0.0144
760.558	-0.0126
760.871	-0.0129
761.184	-0.0168
761.497	-0.0195
761.81	-0.0173
762.123	-0.0128
762.436	-0.0152
762.749	-0.0144
763.062	-0.0147
763.374	-0.0154
763.687	-0.014
764	-0.0147
764.312	-0.0096
764.625	-0.0117
764.937	-0.0098
765.25	-0.0131
765.562	-0.0101
765.874	-0.0122
766.186	-0.0108
766.499	-0.012
766.811	-0.0111
767.123	-0.0085
767.435	-0.0075
767.747	-0.0063
768.059	-0.0131
768.37	-0.0142
768.682	-0.0176
768.994	-0.0142
769.306	-0.0134
769.617	-0.015
769.929	-0.0179
770.24	-0.0215
770.552	-0.0167
770.863	-0.0111
771.174	-0.0129
771.486	-0.0121
771.797	-0.0137
772.108	-0.0108
772.419	-0.0115
772.73	-0.011
773.041	-0.0123
773.352	-0.0121
773.663	-0.0105
773.974	-0.0069
774.285	-0.012
774.595	-0.0183
774.906	-0.0197
775.217	-0.0166
775.527	-0.0118
775.838	-0.0142
776.148	-0.015
776.458	-0.0127
776.769	-0.0115
777.079	-0.0146
777.389	-0.0192
777.699	-0.0201
778.009	-0.0151
778.319	-0.0119
778.629	-0.0103
778.939	-0.0192
779.249	-0.0213
779.559	-0.0227
779.869	-0.0173
780.178	-0.019
780.488	-0.0201
780.798	-0.0182
781.107	-0.0181
781.417	-0.0155
781.726	-0.0122
782.035	-0.0109
782.345	-0.0083
782.654	-0.0097
782.963	-0.0074
783.272	-0.0107
783.581	-0.0064
783.89	-0.0136
784.199	-0.0126
784.508	-0.0108
784.817	-0.005
785.126	-0.0079
785.434	-0.0141
785.743	-0.0164
786.052	-0.0136
786.36	-0.0154
786.669	-0.0189
786.977	-0.019
787.285	-0.0152
787.594	-0.008
787.902	-0.01
788.21	-0.0129
788.518	-0.0161
788.826	-0.0099
789.135	-0.011
789.442	-0.0133
789.75	-0.0174
790.058	-0.0158
790.366	-0.0157
790.674	-0.0185
790.981	-0.02
791.289	-0.0163
791.597	-0.0156
791.904	-0.0162
792.212	-0.0164
792.519	-0.0152
792.826	-0.0147
793.134	-0.0119
793.441	-0.0172
793.748	-0.0192
794.055	-0.0241
794.362	-0.0181
794.669	-0.0185
794.976	-0.0219
795.283	-0.0225
795.59	-0.0141
795.897	-0.0073
796.203	-0.0085
796.51	-0.0093
796.817	-0.0117
797.123	-0.0141
797.43	-0.0202
797.736	-0.0221
798.042	-0.0203
798.349	-0.0155
798.655	-0.0143
798.961	-0.0138
799.267	-0.0165
799.573	-0.0184
799.879	-0.0154
800.185	-0.0093
800.491	-0.0062
800.797	-0.0135
801.103	-0.0197
801.408	-0.0266
801.714	-0.0236
802.02	-0.0218
802.325	-0.0133
802.631	-0.0129
802.936	-0.0187
803.242	-0.0277
803.547	-0.027
803.852	-0.021
804.157	-0.0141
804.462	-0.0099
804.768	-0.0086
805.073	-0.006
805.378	-0.0126
805.682	-0.0148
805.987	-0.0214
806.292	-0.0172
806.597	-0.0204
806.902	-0.0181
807.206	-0.0187
807.511	-0.0147
807.815	-0.0073
808.12	-0.0058
808.424	-0.0018
808.728	-0.0063
809.033	-0.0078
809.337	-0.0121
809.641	-0.0171
809.945	-0.0225
810.249	-0.0311
810.553	-0.0217
810.857	-0.0138
811.161	-0.0047
811.465	-0.0141
811.768	-0.0303
812.072	-0.0374
812.376	-0.0399
812.679	-0.0269
812.983	-0.0262
813.286	-0.0202
813.59	-0.0263
813.893	-0.0175
814.196	-0.0119
814.499	-0.0122
814.803	-0.0193
815.106	-0.025
815.409	-0.0159
815.712	-0.0081
816.015	-0.0031
816.318	-0.0108
816.62	-0.0085
816.923	-0.0134
817.226	-0.01
817.528	-0.0156
817.831	-0.0224
818.133	-0.0245
818.436	-0.0217
818.738	-0.0157
819.041	-0.0085
819.343	-0.0038
819.645	-0.0009
819.947	0.0017
820.249	-0.0013
820.551	-0.0001
820.853	-0.0122
821.155	-0.0249
821.457	-0.0282
821.759	-0.0173
822.061	-0.0086
822.362	-0.0147
822.664	-0.0192
822.966	-0.0249
823.267	-0.0142
823.569	-0.0201
823.87	-0.0142
824.171	-0.0179
824.473	-0.0153
824.774	-0.0227
825.075	-0.0191
825.376	-0.0224
825.677	-0.0165
825.978	-0.0218
826.279	-0.0113
826.58	-0.0177
826.881	-0.023
827.181	-0.0277
827.482	-0.0207
827.783	-0.0123
828.083	-0.0123
828.384	-0.021
828.684	-0.0232
828.985	-0.0305
829.285	-0.0242
829.585	-0.0238
829.885	-0.0072
830.185	-0.0062
830.486	0.0004
830.786	-0.0057
831.086	-0.0125
831.385	-0.0178
831.685	-0.0271
831.985	-0.0212
832.285	-0.0157
832.585	-0.0047
832.884	-0.0121
833.184	-0.0223
833.483	-0.0204
833.783	-0.0049
834.082	-0.003
834.381	-0.0095
834.681	-0.0104
834.98	-0.0066
835.279	-0.012
835.578	-0.0148
835.877	-0.0161
836.176	-0.0146
836.475	-0.0063
836.774	-0.0181
837.072	-0.0176
837.371	-0.0335
837.67	-0.0238
837.968	-0.0221
838.267	-0.0169
838.565	-0.0193
838.864	-0.0224
839.162	-0.0297
839.46	-0.0302
839.759	-0.0247
840.057	-0.0267
840.355	-0.0212
840.653	-0.0299
840.951	-0.0258
841.249	-0.0251
841.547	-0.0178
841.845	-0.0165
842.142	-0.0317
842.44	-0.0267
842.738	-0.0357
843.035	-0.0198
843.333	-0.0292
843.63	-0.0191
843.928	-0.0295
844.225	-0.0219
844.522	-0.0187
844.82	-0.0163
845.117	-0.019
845.414	-0.0182
845.711	-0.0245
846.008	-0.0286
846.305	-0.0372
846.602	-0.026
846.898	-0.0206
847.195	-0.0152
847.492	-0.0265
847.788	-0.0279
848.085	-0.0248
848.382	-0.0202
848.678	-0.0314
848.974	-0.0306
849.271	-0.0224
849.567	-0.0256
849.863	-0.0238
850.159	-0.0229
850.455	-0.0214
850.751	-0.0247
851.047	-0.0305
851.343	-0.0231
851.639	-0.0322
851.935	-0.0301
852.23	-0.031
852.526	-0.0269
852.822	-0.0259
853.117	-0.0268
853.413	-0.0237
853.708	-0.033
854.003	-0.0312
854.299	-0.0204
854.594	-0.0278
854.889	-0.0251
855.184	-0.0343
855.479	-0.0232
855.774	-0.0384
856.069	-0.0317
856.364	-0.0328
856.659	-0.0202
856.954	-0.0353
857.248	-0.0342
857.543	-0.0319
857.837	-0.0249
858.132	-0.0165
858.426	-0.0118
858.721	-0.0087
859.015	-0.0138
859.309	-0.0029
859.604	-0.0163
859.898	-0.0033
860.192	-0.0263
860.486	-0.0116
860.78	-0.0208
861.074	-0.014
861.367	-0.0218
861.661	-0.0162
861.955	-0.0212
862.248	-0.0051
862.542	-0.0163
862.836	-0.0136
863.129	-0.0068
863.422	-0.0039
863.716	-0.0135
864.009	-0.0358
864.302	-0.0336
864.595	-0.0297
864.889	-0.0138
865.182	-0.0245
865.475	-0.0376
865.767	-0.0579
866.06	-0.0478
866.353	-0.0179
866.646	-0.0123
866.938	-0.0232
867.231	-0.0196
867.524	-0.0165
867.816	-0.0234
868.109	-0.0432
868.401	-0.0503
868.693	-0.0242
868.985	-0.014
869.278	-0.0176
869.57	-0.0304
869.862	-0.0434
870.154	-0.043
870.446	-0.0524
870.738	-0.0593
871.029	-0.0546
871.321	-0.0402
871.613	-0.0353
871.904	-0.04
872.196	-0.053
872.487	-0.0404
872.779	-0.0168
873.07	-0.0201
873.362	-0.0257
873.653	-0.0572
873.944	-0.0447
874.235	-0.0507
874.526	-0.0285
874.817	-0.0145
875.108	-0.02
875.399	-0.0246
875.69	-0.04
875.981	-0.0487
876.271	-0.047
876.562	-0.0541
876.853	-0.0093
877.143	-0.056
877.434	-0.064
877.724	-0.0865
878.014	-0.0377
878.305	-0.0238
878.595	-0.0309
878.885	-0.0211
879.175	-0.0182
879.465	-0.0077
879.755	-0.0351
880.045	-0.0366
880.335	-0.049
880.624	-0.0369
880.914	-0.0369
