Data from DIblank1_080217_1b_Absorbance_16-33-42-301.txt Node
Date: Wed Aug 02 16:33:42 MDT 2017
User: Tank Lab
Spectrometer: FLMS01220
Trigger mode: 0
Integration Time (sec): 1.000000E-1
Scans to average: 10
Electric dark correction enabled: true
Nonlinearity correction enabled: false
Boxcar width: 1
XAxis mode: Wavelengths
Number of Pixels in Spectrum: 2048
>>>>>Begin Spectral Data<<<<<
179.47	-0
179.856	-0
180.241	-1.5629
180.626	-0.3232
181.011	0.1089
181.396	-0
181.781	-1.0691
182.166	-0
182.551	-0
182.936	-2.0489
183.321	-0
183.706	0.5971
184.091	-0
184.476	-0
184.86	0.2907
185.245	0.1042
185.63	0.2639
186.015	-0
186.399	0.1704
186.784	-0.9706
187.169	-0
187.553	-0
187.938	-0.0815
188.322	-0.0866
188.707	-0.0211
189.091	-0.0218
189.475	-0.0067
189.86	-0.0193
190.244	-0.0433
190.629	-0.0407
191.013	-0.0196
191.397	0.0006
191.781	-0.0021
192.165	-0.0076
192.55	-0.0112
192.934	-0.0105
193.318	-0.0159
193.702	-0.0146
194.086	-0.0137
194.47	-0.0132
194.854	-0.0108
195.238	-0.0075
195.622	-0.0045
196.006	-0.0029
196.389	-0.0032
196.773	0.0012
197.157	0.0012
197.541	-0.0012
197.924	-0.0087
198.308	-0.0115
198.692	-0.0053
199.075	-0.0015
199.459	-0.0028
199.843	-0.0091
200.226	-0.0093
200.61	-0.0084
200.993	-0.0087
201.376	-0.0082
201.76	-0.0027
202.143	0.0005
202.527	-0.0018
202.91	-0.0028
203.293	-0.0048
203.676	-0.0017
204.059	-0.0044
204.443	-0.0021
204.826	-0.0021
205.209	-0.0008
205.592	-0.002
205.975	-0.0041
206.358	-0.0059
206.741	-0.0038
207.124	-0.0015
207.507	-0.001
207.89	-0.0001
208.273	-0.0025
208.655	-0.0006
209.038	-0.002
209.421	0.0002
209.804	-0.004
210.186	-0.0052
210.569	-0.0052
210.951	-0.0024
211.334	-0.0004
211.717	0.0016
212.099	0.0016
212.482	0.0005
212.864	-0.0011
213.246	-0.0016
213.629	-0.0019
214.011	-0.0026
214.393	-0.0019
214.776	-0.0018
215.158	-0.001
215.54	-0.0002
215.922	-0.0011
216.305	-0.0002
216.687	-0.0013
217.069	-0.0005
217.451	-0.0006
217.833	-0.0002
218.215	-0.0004
218.597	0.0009
218.979	0.0018
219.361	0.0026
219.742	-0.0001
220.124	-0.0005
220.506	-0.0009
220.888	-0.0016
221.27	-0.0022
221.651	-0.0017
222.033	0.0014
222.415	0.0018
222.796	0.0005
223.178	-0.0023
223.559	-0.0015
223.941	-0.0013
224.322	-0.0006
224.704	-0.0023
225.085	-0.0021
225.466	-0.0022
225.848	-0.0017
226.229	-0.0009
226.61	-0.0005
226.992	-0.0017
227.373	-0.0037
227.754	-0.0053
228.135	-0.0046
228.516	-0.0022
228.897	-0.001
229.278	-0.0015
229.659	-0.004
230.04	-0.0034
230.421	-0.0024
230.802	0.0005
231.183	0.0004
231.564	0.0004
231.944	-0.0019
232.325	-0.0018
232.706	-0.0012
233.087	-0.0003
233.467	-0.0002
233.848	-0.0005
234.229	-0.0012
234.609	-0.003
234.99	-0.0035
235.37	-0.0031
235.751	-0.0009
236.131	-0.0015
236.511	-0
236.892	0.0003
237.272	-0.0004
237.652	-0.0001
238.033	-0.0006
238.413	0.0015
238.793	0.0005
239.173	-0.0004
239.553	-0.0023
239.933	-0.0021
240.313	-0.0007
240.694	0.0024
241.074	0.0027
241.453	0.002
241.833	0.0029
242.213	0.0021
242.593	0.0001
242.973	-0.0021
243.353	-0.0017
243.732	0.0008
244.112	-0.0005
244.492	-0.0012
244.872	-0.0022
245.251	0.0007
245.631	0.0012
246.01	0.0017
246.39	0.0002
246.769	0.0003
247.149	0.0007
247.528	0.0006
247.908	0.0011
248.287	0.001
248.666	0.001
249.045	0.0007
249.425	0.0003
249.804	0.0002
250.183	-0.0001
250.562	0.0005
250.941	0.0011
251.32	0.0018
251.699	0.0006
252.078	0.0005
252.457	-0.0003
252.836	0.0012
253.215	-0.0001
253.594	0.0003
253.973	-0.0012
254.352	-0.0009
254.731	-0.0017
255.109	0.0002
255.488	0.0001
255.867	0.0004
256.245	-0.001
256.624	-0.0007
257.002	-0.0003
257.381	0.0012
257.759	0.0029
258.138	0.0031
258.516	0.0013
258.895	-0.0004
259.273	-0.0006
259.651	-0.0005
260.03	-0.0009
260.408	-0.0004
260.786	-0.0001
261.164	0.0014
261.542	-0.0003
261.921	-0.0001
262.299	-0.0002
262.677	0.0011
263.055	0.0022
263.433	0.0013
263.811	0.0011
264.188	-0.0003
264.566	-0.0003
264.944	-0
265.322	0.0003
265.7	0.0005
266.077	0.0007
266.455	-0.0005
266.833	-0.0011
267.21	-0.0025
267.588	-0.0009
267.966	-0.0017
268.343	-0.0003
268.721	-0.0009
269.098	0.0003
269.475	-0.0002
269.853	0.0001
270.23	-0.0004
270.607	-0.0004
270.985	-0.0012
271.362	0.0003
271.739	0.0002
272.116	0.0009
272.494	0.0003
272.871	0.0007
273.248	0.0001
273.625	0.0006
274.002	0.0012
274.379	0.0008
274.756	0.0002
275.132	-0.0009
275.509	-0.0007
275.886	-0.0005
276.263	-0.0003
276.64	0.0003
277.016	-0.0002
277.393	-0.0003
277.77	-0.0006
278.146	-0.0001
278.523	-0.0005
278.899	-0.0005
279.276	0.0002
279.652	0.0008
280.029	0.0006
280.405	0.0003
280.782	-0.0007
281.158	-0
281.534	-0.0008
281.91	0
282.287	-0.0007
282.663	0.0002
283.039	0.0004
283.415	0.0021
283.791	0.0024
284.167	0.003
284.543	0.0014
284.919	0.0001
285.295	0
285.671	-0.0006
286.047	0.0001
286.423	0.0002
286.799	0.0017
287.174	0.001
287.55	0.0006
287.926	0.0002
288.301	0.0012
288.677	0.0016
289.053	0.0013
289.428	0.0014
289.804	0.0006
290.179	-0.0004
290.555	-0.002
290.93	-0.0015
291.305	-0.0009
291.681	0.0005
292.056	-0
292.431	-0.0003
292.806	-0.0002
293.182	0.0001
293.557	0.0015
293.932	0.0012
294.307	0.0002
294.682	-0.0011
295.057	-0.0017
295.432	0.0009
295.807	0.0014
296.182	0.0016
296.557	-0.0001
296.932	-0.0006
297.306	0.0001
297.681	0.0014
298.056	0.0023
298.43	0.0023
298.805	0.0013
299.18	0.0008
299.554	0.0013
299.929	0.0001
300.303	0.0008
300.678	0.0006
301.052	0.0022
301.427	0.0007
301.801	-0.0006
302.175	-0.0002
302.55	0.0005
302.924	0.0003
303.298	-0.0015
303.672	-0.001
304.046	-0.0013
304.421	-0.0004
304.795	0.0006
305.169	0.0022
305.543	0.0039
305.917	0.003
306.291	0.0023
306.664	0.0015
307.038	0.0013
307.412	0.0011
307.786	0.0005
308.16	-0.0004
308.533	-0.0001
308.907	0
309.281	-0.0003
309.654	0.0013
310.028	0.0011
310.401	0.0018
310.775	0.001
311.148	0.0007
311.522	0.001
311.895	0.0018
312.268	0.0007
312.642	0.0002
313.015	-0.0015
313.388	0.0015
313.761	0.0023
314.135	0.003
314.508	0.0028
314.881	0.0034
315.254	0.0047
315.627	0.0038
316	0.003
316.373	0.0026
316.746	0.0016
317.118	0.0012
317.491	0.0007
317.864	0.0021
318.237	0.0024
318.61	0.0019
318.982	0.0012
319.355	0.0007
319.727	0.0006
320.1	0.0005
320.473	0.0014
320.845	0.0027
321.218	0.0038
321.59	0.0033
321.962	0.0012
322.335	-0.0005
322.707	-0.0023
323.079	-0.0013
323.452	0.0001
323.824	0.001
324.196	0.0003
324.568	-0.0021
324.94	-0.0017
325.312	-0.0001
325.684	0.0016
326.056	0.001
326.428	-0
326.8	-0
327.172	0.0014
327.544	0.0018
327.915	0.0022
328.287	0.0027
328.659	0.0019
329.031	0.0003
329.402	-0.0011
329.774	-0.0015
330.145	-0.002
330.517	-0.0019
330.888	-0.0011
331.26	0.0014
331.631	-0.0006
332.003	0.0012
332.374	0.0001
332.745	0.0022
333.117	0.0007
333.488	0.0008
333.859	-0.0008
334.23	0.0003
334.601	0.0011
334.972	0.003
335.343	0.0009
335.714	-0.0001
336.085	-0.0006
336.456	0.0005
336.827	0.0008
337.198	0
337.569	0.001
337.94	0.0001
338.31	0.0006
338.681	-0.0011
339.052	-0.0002
339.422	0.0014
339.793	0.0021
340.164	0.002
340.534	-0.0001
340.905	-0.0011
341.275	-0.0013
341.645	0.001
342.016	0.0008
342.386	0.0022
342.756	0.0013
343.127	0.0013
343.497	0.0014
343.867	0.0001
344.237	0.0005
344.607	-0.0002
344.977	0.0014
345.347	0.0006
345.717	0.0006
346.087	-0.0003
346.457	0.0009
346.827	0.0001
347.197	0.0002
347.567	0.0011
347.936	0.0003
348.306	0
348.676	-0.0008
349.046	-0.0002
349.415	0.0015
349.785	0.0008
350.154	-0
350.524	-0.0008
350.893	0.0002
351.263	0.0022
351.632	0.0018
352.001	0.0028
352.371	0.0016
352.74	0.0015
353.109	-0.0001
353.478	-0.0003
353.847	-0.0009
354.217	-0.0021
354.586	-0.0011
354.955	0.0001
355.324	0.0019
355.693	-0.0002
356.062	-0.0001
356.43	-0.0002
356.799	0.0017
357.168	0.0012
357.537	-0.0005
357.906	-0.0001
358.274	0.0004
358.643	0.002
359.011	0.0007
359.38	0.001
359.749	0.0003
360.117	0.0012
360.486	0.0007
360.854	0.003
361.222	0.0029
361.591	0.003
361.959	-0.0003
362.327	-0.0005
362.695	-0.0008
363.064	-0.0009
363.432	0.0005
363.8	0.0017
364.168	0.0027
364.536	0.0024
364.904	0.0015
365.272	-0.0002
365.64	-0.0018
366.008	-0.0032
366.376	-0.0001
366.743	-0.0003
367.111	-0.0004
367.479	-0.0017
367.847	-0.0003
368.214	0.0005
368.582	0.0006
368.949	-0.001
369.317	0.0012
369.684	0.0014
370.052	0.0025
370.419	-0
370.787	-0.0001
371.154	0.0005
371.521	0.0012
371.889	0.0017
372.256	0.0009
372.623	-0.0001
372.99	-0.0021
373.357	-0.0011
373.724	0.0003
374.091	0.0017
374.458	0.0012
374.825	-0.0022
375.192	-0.0022
375.559	-0.0023
375.926	-0.0008
376.293	-0.0005
376.659	-0.0014
377.026	0.0009
377.393	0.0013
377.759	0.0025
378.126	0.0015
378.492	0.0002
378.859	-0.0014
379.225	-0.0022
379.592	-0.0032
379.958	-0.001
380.325	-0.001
380.691	0.0009
381.057	-0.0001
381.423	0.0014
381.79	0.0012
382.156	-0.0009
382.522	-0.0011
382.888	0.0004
383.254	0.0021
383.62	0.0025
383.986	0.0017
384.352	0.0025
384.718	0.0009
385.084	-0.0002
385.449	-0.0013
385.815	-0
386.181	-0.0002
386.547	0.0011
386.912	-0.0019
387.278	-0.0015
387.643	-0.0017
388.009	0.002
388.374	0.0004
388.74	0.0004
389.105	-0.0017
389.471	0.0015
389.836	0.0017
390.201	0.0033
390.566	0.0028
390.932	0.0043
391.297	0.0037
391.662	0.0019
392.027	0.001
392.392	-0.0003
392.757	0
393.122	-0.0005
393.487	0.0005
393.852	0.0017
394.217	0.0011
394.582	0.0006
394.946	0.0016
395.311	0.0036
395.676	0.0045
396.04	0.0014
396.405	-0.0015
396.77	-0.002
397.134	-0.0011
397.499	0.0006
397.863	-0.0004
398.227	-0.0016
398.592	-0.0008
398.956	-0.0008
399.32	0.0015
399.685	0.0004
400.049	-0.0004
400.413	-0.0006
400.777	-0.0017
401.141	-0.0005
401.505	-0.0018
401.869	-0.0015
402.233	-0.0025
402.597	-0.0027
402.961	-0.0017
403.325	-0.0006
403.689	0.0007
404.053	0.0011
404.416	0.0016
404.78	0.0011
405.144	0.001
405.507	0.0003
405.871	-0.001
406.234	-0.0008
406.598	0.0006
406.961	0.0026
407.325	0.0017
407.688	0.0019
408.051	0
408.415	-0.0007
408.778	-0.0012
409.141	0.0015
409.504	0.0027
409.867	0.0038
410.23	0.0015
410.593	0.0001
410.956	-0.003
411.319	-0.0056
411.682	-0.0051
412.045	-0.0056
412.408	-0.0019
412.771	-0.0018
413.134	0.0004
413.496	-0.0019
413.859	-0.0011
414.222	-0.0003
414.584	0.0032
414.947	0.0017
415.309	0.0007
415.672	-0.0017
416.034	-0.0039
416.396	-0.0042
416.759	-0.0042
417.121	-0.0036
417.483	-0.0028
417.846	-0.0027
418.208	0.0002
418.57	-0.0006
418.932	-0.0018
419.294	-0.0025
419.656	-0.0011
420.018	-0.0006
420.38	0.0004
420.742	0.0005
421.104	0.0013
421.466	0.0011
421.827	0.0014
422.189	0.0023
422.551	0.0011
422.912	-0.0008
423.274	0.0002
423.636	-0.0008
423.997	0.0019
424.359	0.0029
424.72	0.0056
425.081	0.0059
425.443	0.0013
425.804	0.0002
426.165	-0.0032
426.527	0.0009
426.888	0.0005
427.249	0.0041
427.61	0.0022
427.971	0.0022
428.332	-0.0014
428.693	-0.0021
429.054	-0.0026
429.415	-0.0013
429.776	-0.0004
430.137	0.0001
430.498	-0.0002
430.858	0.0005
431.219	0.001
431.58	0.0008
431.94	0.0019
432.301	0.0026
432.661	0.0016
433.022	-0.0002
433.382	-0.001
433.743	0.001
434.103	-0
434.463	-0.0001
434.824	-0.0007
435.184	0.0018
435.544	0.0017
435.904	0.0015
436.264	0.0003
436.624	0.0004
436.985	0.0011
437.345	0.0002
437.704	-0.0018
438.064	-0.0031
438.424	-0.0034
438.784	-0.0015
439.144	0.0005
439.504	0.0024
439.863	0.0025
440.223	0.0017
440.583	0.0014
440.942	0.0002
441.302	-0.0002
441.661	-0.002
442.021	-0.0031
442.38	-0.0019
442.739	0.0007
443.099	0.0038
443.458	0.0036
443.817	0.0024
444.176	0.0023
444.536	0.0002
444.895	0.0013
445.254	-0.0007
445.613	0.0011
445.972	-0.0021
446.331	-0.0039
446.69	-0.0048
447.049	-0.0045
447.407	-0.0036
447.766	-0.0026
448.125	-0.0007
448.484	0.001
448.842	0.0016
449.201	0.0026
449.559	0.0005
449.918	-0.0004
450.276	-0.0021
450.635	0.0003
450.993	0.0005
451.352	0.0003
451.71	0.0016
452.068	0.0005
452.426	0.0013
452.785	0.0007
453.143	0.0006
453.501	0.0013
453.859	-0.0013
454.217	0.0001
454.575	-0.0031
454.933	-0.0033
455.291	-0.0024
455.649	0.0022
456.006	0.0056
456.364	0.0032
456.722	0.0022
457.079	0.0023
457.437	0.004
457.795	0.001
458.152	0.0001
458.51	0.0008
458.867	0.0032
459.225	0.0027
459.582	0.0002
459.939	-0.0019
460.297	-0.0014
460.654	-0.0015
461.011	-0.0023
461.368	-0.0034
461.725	-0.002
462.082	-0.0003
462.44	-0.0016
462.797	-0.0032
463.153	-0.0049
463.51	-0.0027
463.867	-0.0008
464.224	0.0004
464.581	0.0008
464.938	0.0004
465.294	0.0006
465.651	0.0021
466.008	0.0025
466.364	0.0027
466.721	0.0021
467.077	-0.0007
467.434	0.001
467.79	0.0008
468.146	0.0031
468.503	0.0014
468.859	-0.0007
469.215	-0.0015
469.571	-0.0015
469.927	0.0001
470.284	0.0021
470.64	0.0011
470.996	-0.0007
471.352	-0.0009
471.707	0.0005
472.063	0.0007
472.419	0.002
472.775	0.0014
473.131	0.0007
473.486	-0.0039
473.842	-0.003
474.198	-0.0022
474.553	0.0015
474.909	0.0011
475.264	0.0026
475.62	-0.0001
475.975	0.0001
476.331	-0.0018
476.686	0.0022
477.041	0.0026
477.396	0.0021
477.752	0.0015
478.107	0.0015
478.462	0.002
478.817	-0.0011
479.172	-0.0037
479.527	-0.0025
479.882	-0.0031
480.237	-0.0004
480.591	-0.0022
480.946	0.0008
481.301	-0.0007
481.656	0.0007
482.01	0.0015
482.365	0.0034
482.72	0.0034
483.074	0.0026
483.429	0.0011
483.783	0.0008
484.137	0.0004
484.492	0.0026
484.846	0.0034
485.2	0.0025
485.555	0.0019
485.909	0.0015
486.263	0.0008
486.617	0.0001
486.971	-0.0006
487.325	0.004
487.679	0.0025
488.033	0.0018
488.387	-0.0021
488.741	-0.0002
489.094	-0.0001
489.448	0.0011
489.802	0.0016
490.156	0.0006
490.509	-0.001
490.863	-0.0019
491.216	-0
491.57	0.0009
491.923	0.0012
492.277	0.0013
492.63	0.0001
492.983	-0.0018
493.337	-0.0014
493.69	0.0006
494.043	0.0011
494.396	0.0009
494.749	-0.0003
495.102	-0.0017
495.455	-0.0011
495.808	-0.002
496.161	0.0016
496.514	0.0007
496.867	0.0009
497.22	-0.0011
497.572	-0.0017
497.925	-0.0019
498.278	-0.0012
498.63	-0.0014
498.983	0.0013
499.335	0.0014
499.688	0.0018
500.04	0.001
500.393	-0.0004
500.745	-0.0001
501.097	-0.0017
501.449	-0.0002
501.802	0.0001
502.154	0.0009
502.506	0.0002
502.858	0.0008
503.21	0.0014
503.562	0.0012
503.914	0.0018
504.266	-0.0002
504.618	-0.0024
504.969	-0.0026
505.321	0.0001
505.673	0.0019
506.025	-0.0007
506.376	-0.0022
506.728	-0.0042
507.079	-0.0032
507.431	-0.0029
507.782	-0.0001
508.134	0.0013
508.485	0.0012
508.836	0.0017
509.188	0.0018
509.539	0.0021
509.89	0.002
510.241	-0.0017
510.592	-0.0006
510.943	-0.0016
511.294	-0.0002
511.645	-0.0022
511.996	-0.0032
512.347	-0.0039
512.698	-0.0046
513.049	-0.0044
513.399	-0.0023
513.75	-0.0035
514.101	-0.001
514.451	-0.0012
514.802	-0.0011
515.152	-0.0019
515.503	-0.0011
515.853	0.0019
516.203	0.0021
516.554	0.0018
516.904	0.0012
517.254	0.0002
517.604	0.0006
517.955	0.001
518.305	0.0014
518.655	-0.0013
519.005	-0.0011
519.355	-0.0014
519.705	0.0003
520.055	-0.0002
520.404	-0.0007
520.754	-0.0003
521.104	0.0029
521.454	0.0021
521.803	0.0005
522.153	-0.0024
522.502	-0.0019
522.852	-0.0038
523.201	-0.005
523.551	-0.0049
523.9	-0.002
524.249	-0.0009
524.599	-0.0005
524.948	-0.0004
525.297	-0.0012
525.646	0.0004
525.995	-0.0004
526.344	0.0028
526.694	0.0017
527.042	0.0018
527.391	-0.0019
527.74	-0.002
528.089	-0.0019
528.438	0.0001
528.787	0.0011
529.135	0.0008
529.484	-0.0009
529.833	-0.0021
530.181	0.0004
530.53	0.0021
530.878	0.0016
531.227	-0.0014
531.575	-0.0029
531.923	-0.0029
532.271	-0.0039
532.62	-0.0023
532.968	0.0019
533.316	0.0038
533.664	0.0037
534.012	0.0018
534.36	0.0004
534.708	0.0003
535.056	0.0013
535.404	0.0029
535.752	0.0022
536.1	-0.002
536.447	-0.0027
536.795	-0.0022
537.143	0.0005
537.49	0.0031
537.838	0.0012
538.185	-0.0023
538.533	-0.0061
538.88	-0.0055
539.228	-0.0034
539.575	-0.002
539.922	-0.0012
540.269	-0.0017
540.617	-0.0007
540.964	-0.0026
541.311	-0.0032
541.658	-0.0065
542.005	-0.0057
542.352	-0.0067
542.699	-0.0059
543.045	-0.0055
543.392	-0.0031
543.739	-0.0021
544.086	0.0001
544.432	-0.0015
544.779	-0.0006
545.126	-0.0031
545.472	-0.0041
545.819	-0.0051
546.165	-0.006
546.512	-0.0022
546.858	-0.0006
547.204	0.0009
547.55	0.0008
547.897	0.0007
548.243	0.0007
548.589	0.0002
548.935	-0.0007
549.281	0.0001
549.627	0
549.973	-0.0002
550.319	-0.0008
550.665	-0.0009
551.01	-0.0016
551.356	-0.0011
551.702	-0.0026
552.048	-0.0017
552.393	-0.0026
552.739	-0.0033
553.084	-0.0008
553.43	-0.0024
553.775	-0.0009
554.12	-0.0028
554.466	-0.0004
554.811	0.0007
555.156	0.0005
555.502	0
555.847	0
556.192	-0.0006
556.537	0.0001
556.882	-0.0032
557.227	-0.0039
557.572	-0.0047
557.917	-0.0039
558.261	-0.0022
558.606	-0.0024
558.951	-0.001
559.295	-0.0022
559.64	-0.0039
559.985	-0.0046
560.329	-0.0063
560.674	-0.0046
561.018	-0.0012
561.363	-0.0003
561.707	-0.0003
562.051	-0.0048
562.395	-0.0024
562.74	-0.005
563.084	-0.0033
563.428	-0.0039
563.772	0.0005
564.116	0.0006
564.46	0.0003
564.804	-0.0012
565.148	-0.0046
565.492	-0.006
565.835	-0.0057
566.179	-0.0038
566.523	-0.0024
566.866	-0.003
567.21	-0.0019
567.554	-0.0053
567.897	-0.0037
568.24	-0.0052
568.584	-0.0023
568.927	-0.0025
569.271	-0.0035
569.614	-0.0017
569.957	-0.0024
570.3	0.0005
570.643	0.002
570.986	0.0013
571.329	0.0028
571.672	0.0016
572.015	0.001
572.358	0.0029
572.701	0.0011
573.044	0.0004
573.387	-0.0041
573.729	-0.0021
574.072	-0.0012
574.414	-0.0024
574.757	-0.0019
575.099	-0.0031
575.442	-0.0036
575.784	-0.0045
576.127	-0.0015
576.469	0.0009
576.811	-0.0013
577.153	-0.0034
577.496	-0.0028
577.838	-0.0002
578.18	0.0001
578.522	-0.0011
578.864	-0.0015
579.206	0.0008
579.548	0.0011
579.889	0.0005
580.231	-0.0014
580.573	0.0013
580.915	0.0017
581.256	-0.0022
581.598	-0.0037
581.939	-0.0065
582.281	-0.0005
582.622	-0.0025
582.964	-0.0033
583.305	-0.0042
583.646	-0.0035
583.988	0.0003
584.329	0.0013
584.67	-0.0015
585.011	-0.0026
585.352	-0.0066
585.693	-0.0055
586.034	-0.0066
586.375	-0.0078
586.716	-0.0032
587.057	-0.0027
587.398	0.0005
587.738	-0.0006
588.079	-0.003
588.42	-0.0024
588.76	-0.0048
589.101	-0.0036
589.441	-0.0049
589.782	-0.0035
590.122	-0.0019
590.463	0.0008
590.803	-0.0019
591.143	-0.0027
591.483	-0.0029
591.823	-0.0011
592.164	-0.0003
592.504	0.0017
592.844	0.0031
593.184	0.0004
593.523	-0.0027
593.863	-0.0042
594.203	-0.0016
594.543	-0.0005
594.883	-0.006
595.222	-0.0071
595.562	-0.0045
595.901	-0.0019
596.241	-0.0046
596.58	-0.0052
596.92	-0.0047
597.259	-0.0026
597.599	-0.0034
597.938	0.0011
598.277	0.0023
598.616	-0.0014
598.955	-0.0053
599.295	-0.0047
599.634	-0.0006
599.973	0.001
600.312	-0.0018
600.65	-0.0043
600.989	-0.0059
601.328	-0.0067
601.667	-0.0008
602.005	-0.0005
602.344	-0.0004
602.683	-0.0033
603.021	-0.0041
603.36	-0.0064
603.698	-0.0077
604.037	-0.0072
604.375	-0.0043
604.713	-0.0053
605.052	-0.0046
605.39	-0.0031
605.728	-0.0008
606.066	0.003
606.404	0.0012
606.742	-0.0028
607.08	-0.0028
607.418	-0.004
607.756	-0.0006
608.094	-0.0006
608.431	0.0007
608.769	0.0007
609.107	-0.0044
609.444	-0.0041
609.782	-0.0052
610.12	-0.0022
610.457	-0.0005
610.794	-0.0019
611.132	-0.0037
611.469	-0.0042
611.806	-0.005
612.144	-0.0081
612.481	-0.007
612.818	-0.0017
613.155	0.0033
613.492	-0.0011
613.829	-0.0036
614.166	-0.0029
614.503	0.0002
614.84	-0.0028
615.176	-0.0034
615.513	-0.0023
615.85	-0.0003
616.187	-0
616.523	-0.0031
616.86	-0.0027
617.196	0.0001
617.533	0.0032
617.869	0
618.205	-0.003
618.542	-0.0032
618.878	-0.004
619.214	-0.0028
619.55	-0.0049
619.886	-0.0017
620.222	-0.0061
620.558	-0.0069
620.894	-0.0109
621.23	-0.0105
621.566	-0.0108
621.902	-0.0076
622.238	-0.0078
622.573	-0.0014
622.909	-0.0016
623.244	-0.0014
623.58	-0.0071
623.916	-0.0075
624.251	-0.0044
624.586	-0.0013
624.922	0.0003
625.257	-0.0018
625.592	-0.0067
625.927	-0.005
626.263	-0.0052
626.598	-0.0027
626.933	-0.0065
627.268	-0.0047
627.603	-0.0038
627.938	-0.0047
628.272	-0.0026
628.607	-0.004
628.942	-0.005
629.277	-0.0066
629.611	-0.0046
629.946	-0.003
630.281	-0.0063
630.615	-0.0086
630.949	-0.0078
631.284	-0.0029
631.618	-0.0015
631.953	-0.0013
632.287	-0.0034
632.621	-0.0029
632.955	-0.0037
633.289	-0.0031
633.623	-0.0061
633.957	-0.0068
634.291	-0.0066
634.625	-0.0026
634.959	0.0004
635.293	0.0005
635.627	0.0043
635.96	0.0024
636.294	0.0038
636.627	-0.0015
636.961	0.002
637.294	-0.0001
637.628	-0.0007
637.961	-0.0058
638.295	-0.0071
638.628	-0.003
638.961	0.0031
639.294	0.0016
639.628	-0.005
639.961	-0.0085
640.294	-0.0094
640.627	-0.0068
640.96	-0.0058
641.293	-0.0032
641.625	0.0014
641.958	-0.0051
642.291	-0.0056
642.624	-0.0068
642.956	-0.0035
643.289	0.0012
643.621	0.0025
643.954	0.0029
644.286	-0.0015
644.619	-0.005
644.951	-0.0073
645.283	-0.0083
645.616	-0.0055
645.948	0.0012
646.28	0.0057
646.612	0.003
646.944	0.0028
647.276	-0.0012
647.608	-0.003
647.94	-0.0062
648.272	-0.0092
648.603	-0.0105
648.935	-0.0086
649.267	-0.0048
649.598	-0.004
649.93	-0.0055
650.261	-0.0057
650.593	-0.0045
650.924	0.0018
651.256	0.0031
651.587	0.0053
651.918	-0.0009
652.25	-0.0017
652.581	-0.0039
652.912	-0.0004
653.243	-0.0013
653.574	-0.0019
653.905	-0.0062
654.236	-0.0063
654.567	-0.0045
654.897	-0.0047
655.228	-0.0041
655.559	-0.0046
655.89	-0.0023
656.22	-0.0046
656.551	-0.0047
656.881	-0.0054
657.212	-0.0024
657.542	-0.0013
657.872	-0.0043
658.203	-0.0065
658.533	0.0005
658.863	0.0095
659.193	-0.0018
659.523	-0.0059
659.853	-0.0183
660.183	-0.0106
660.513	-0.0044
660.843	-0.002
661.173	-0.0051
661.503	-0.0049
661.833	-0.0016
662.162	0.0009
662.492	0.0026
662.822	-0.0015
663.151	-0.0024
663.481	-0.008
663.81	-0.0102
664.139	-0.0104
664.469	-0.0101
664.798	-0.0105
665.127	-0.0069
665.456	-0.0063
665.785	0.0016
666.114	0.0013
666.443	0.0042
666.772	0.0018
667.101	0.0006
667.43	-0.0018
667.759	0.0005
668.088	-0.0008
668.416	-0.0036
668.745	-0.0072
669.074	-0.0075
669.402	-0.0046
669.731	-0.0045
670.059	-0.0027
670.388	-0.0042
670.716	-0.0037
671.044	-0.0085
671.372	-0.0058
671.701	-0.0059
672.029	-0.0052
672.357	-0.0062
672.685	-0.0047
673.013	-0.0051
673.341	-0.0022
673.669	-0.0044
673.996	-0.0016
674.324	-0.001
674.652	-0.0011
674.98	-0.0027
675.307	-0.0082
675.635	-0.0086
675.962	-0.0048
676.29	-0.0025
676.617	-0.0016
676.945	-0.0069
677.272	-0.0067
677.599	-0.0084
677.926	-0.0034
678.253	-0.0033
678.581	-0.0053
678.908	-0.0111
679.235	-0.0073
679.561	-0.0033
679.888	-0.0052
680.215	-0.0069
680.542	-0.0069
680.869	-0.007
681.195	-0.0079
681.522	-0.0102
681.849	-0.0106
682.175	-0.0091
682.502	-0.0097
682.828	-0.0066
683.154	-0.0093
683.481	-0.0062
683.807	-0.0086
684.133	-0.0074
684.459	-0.0083
684.785	-0.0041
685.111	-0.0036
685.437	-0.0029
685.763	-0.0009
686.089	-0.0015
686.415	-0.0034
686.741	-0.0039
687.067	0
687.392	0.0029
687.718	0.0021
688.043	-0.0029
688.369	-0.0019
688.694	-0.0009
689.02	-0.0006
689.345	-0.0017
689.67	-0.0023
689.996	0.0033
690.321	0.0034
690.646	0.0011
690.971	-0.0006
691.296	-0.0039
691.621	-0.006
691.946	-0.0069
692.271	-0.0083
692.596	-0.0021
692.921	-0.0049
693.245	-0.0007
693.57	-0.0051
693.895	-0.0037
694.219	-0.0067
694.544	-0.0057
694.868	-0.0071
695.193	-0.0063
695.517	-0.0031
695.841	-0.0024
696.166	-0.0003
696.49	-0.0042
696.814	-0.0036
697.138	-0.0057
697.462	-0.004
697.786	-0.0048
698.11	-0.0049
698.434	-0.0008
698.758	-0.0022
699.081	-0.0021
699.405	-0.0066
699.729	-0.0007
700.052	0.0043
700.376	0.0021
700.7	-0.0005
701.023	-0.0038
701.346	-0.0019
701.67	-0.0017
701.993	0.0005
702.316	-0.0012
702.639	-0.0034
702.963	-0.0043
703.286	-0.0069
703.609	-0.0068
703.932	-0.0107
704.255	-0.0007
704.578	-0.0027
704.9	-0.0002
705.223	-0.0037
705.546	0.0026
705.868	0.0053
706.191	0.0001
706.514	-0.0038
706.836	-0.0093
707.159	-0.0071
707.481	-0.0056
707.803	-0.0049
708.126	-0.0036
708.448	-0.0029
708.77	-0.0038
709.092	-0.0034
709.414	-0.0048
709.736	-0.0039
710.058	-0.0032
710.38	-0.0048
710.702	-0.0009
711.024	-0.0052
711.345	-0.0048
711.667	-0.01
711.989	-0.0107
712.31	-0.0082
712.632	-0.0083
712.953	-0.006
713.275	-0.0108
713.596	-0.0037
713.917	-0.0035
714.239	-0.0005
714.56	-0.0039
714.881	-0.0025
715.202	-0.0014
715.523	-0.0018
715.844	-0.002
716.165	-0.0037
716.486	-0.003
716.807	-0.0016
717.128	-0.0016
717.448	-0.0001
717.769	0.0013
718.09	0.0011
718.41	-0.0006
718.731	-0.0021
719.051	-0.0014
719.372	-0.0048
719.692	-0.0068
720.012	0.0002
720.332	0.0002
720.653	0.0033
720.973	-0.0034
721.293	-0.0017
721.613	-0.0081
721.933	-0.0072
722.253	-0.008
722.573	0.0004
722.892	0.0032
723.212	-0.0033
723.532	-0.0071
723.851	-0.0113
724.171	-0.0073
724.491	-0.0109
724.81	-0.0071
725.129	-0.0031
725.449	-0.0047
725.768	-0.0104
726.087	-0.0093
726.407	-0.0077
726.726	-0.0045
727.045	-0.0041
727.364	0.0016
727.683	0.0025
728.002	-0.0018
728.321	-0.0062
728.64	-0.0073
728.958	-0.0076
729.277	-0.0029
729.596	-0.0032
729.914	-0.0032
730.233	-0.0118
730.551	-0.011
730.87	-0.0098
731.188	-0.0033
731.507	-0.0062
731.825	-0.0052
732.143	-0.0083
732.461	-0.0063
732.779	-0.0036
733.097	-0.003
733.415	-0.0052
733.733	-0.0069
734.051	-0.0072
734.369	-0.0072
734.687	-0.0055
735.005	-0.0041
735.322	-0.005
735.64	-0.0052
735.957	-0.0045
736.275	-0.0045
736.592	-0.0064
736.91	-0.0032
737.227	0.0042
737.544	0.006
737.862	0.0043
738.179	0.0033
738.496	-0.0009
738.813	-0.0021
739.13	-0.0057
739.447	-0.0038
739.764	-0.0017
740.081	-0.0066
740.398	-0.0154
740.714	-0.0193
741.031	-0.0133
741.348	-0.0026
741.664	-0.0021
741.981	-0
742.297	-0.0016
742.614	-0.0045
742.93	-0.009
743.246	-0.0153
743.563	-0.0143
743.879	-0.0164
744.195	-0.0133
744.511	-0.0113
744.827	-0.0057
745.143	-0.0047
745.459	-0.0043
745.775	-0.0072
746.091	-0.0072
746.406	-0.0085
746.722	-0.0085
747.038	-0.0015
747.353	-0.0029
747.669	0.0003
747.984	-0.0028
748.3	-0.0009
748.615	-0.0051
748.93	-0.0125
749.246	-0.0146
749.561	-0.0111
749.876	-0.0034
750.191	0.0005
750.506	-0.0007
750.821	-0.002
751.136	-0.0026
751.451	-0.0035
751.766	-0.0064
752.08	-0.0103
752.395	-0.0066
752.71	-0.0023
753.024	0.0012
753.339	-0.0003
753.653	-0.0043
753.968	-0.0051
754.282	-0.0043
754.596	0.0009
754.911	0.0026
755.225	-0.0005
755.539	-0.0086
755.853	-0.0129
756.167	-0.0156
756.481	-0.0108
756.795	-0.0067
757.109	0.0002
757.423	-0.0025
757.736	-0.0025
758.05	-0.0097
758.364	-0.008
758.677	-0.0075
758.991	-0.0035
759.304	-0.0024
759.618	-0.0065
759.931	-0.0081
760.244	-0.0084
760.558	-0.0052
760.871	-0.0072
761.184	-0.0085
761.497	-0.0106
761.81	-0.0082
762.123	-0.0048
762.436	-0.0079
762.749	-0.0098
763.062	-0.0068
763.374	-0.0023
763.687	0.0047
764	0.003
764.312	0.006
764.625	0.0036
764.937	0.0022
765.25	-0.0064
765.562	-0.0071
765.874	-0.0037
766.186	0.0001
766.499	-0.0029
766.811	-0.0129
767.123	-0.0125
767.435	-0.0102
767.747	-0.0028
768.059	-0.0015
768.37	-0.0002
768.682	-0.0025
768.994	-0.0081
769.306	-0.0121
769.617	-0.0143
769.929	-0.0079
770.24	-0.0022
770.552	0.0004
770.863	-0.0088
771.174	-0.0109
771.486	-0.0109
771.797	-0.0067
772.108	-0.0082
772.419	-0.0079
772.73	-0.0039
773.041	-0.0015
773.352	-0.0027
773.663	-0.0029
773.974	-0.0001
774.285	-0.0017
774.595	-0.0046
774.906	-0.0105
775.217	-0.0101
775.527	-0.007
775.838	-0.0054
776.148	-0.0015
776.458	-0.0038
776.769	-0.0071
777.079	-0.0078
777.389	-0.0094
777.699	-0.0087
778.009	-0.0125
778.319	-0.0106
778.629	-0.0086
778.939	-0.0075
779.249	-0.0071
779.559	-0.0079
779.869	-0.0067
780.178	-0.0075
780.488	-0.0048
780.798	-0.0062
781.107	-0.0098
781.417	-0.0113
781.726	-0.0129
782.035	-0.0099
782.345	-0.0109
782.654	-0.0082
782.963	-0.0129
783.272	-0.0104
783.581	-0.0055
783.89	0.0021
784.199	0.0042
784.508	-0.0021
784.817	-0.0055
785.126	-0.0059
785.434	-0.0038
785.743	-0.0038
786.052	-0.0091
786.36	-0.0085
786.669	-0.012
786.977	-0.0109
787.285	-0.0145
787.594	-0.0092
787.902	-0.0079
788.21	-0.0057
788.518	-0.0087
788.826	-0.0126
789.135	-0.0153
789.442	-0.0177
789.75	-0.018
790.058	-0.0124
790.366	-0.0065
790.674	-0.0053
790.981	-0.0067
791.289	-0.0015
791.597	0.0057
791.904	0.0027
792.212	-0.0032
792.519	-0.0075
792.826	-0.0075
793.134	-0.0032
793.441	-0.0103
793.748	-0.0089
794.055	-0.014
794.362	-0.0115
794.669	-0.0103
794.976	-0.0099
795.283	-0.0034
795.59	-0.0005
795.897	0.0003
796.203	-0.0013
796.51	-0.0006
796.817	0.0063
797.123	0.0015
797.43	-0.0045
797.736	-0.0139
798.042	-0.0167
798.349	-0.0165
798.655	-0.0124
798.961	-0.0057
799.267	-0.003
799.573	-0.0052
799.879	-0.0074
800.185	-0.0041
800.491	-0.0033
800.797	-0.007
801.103	-0.009
801.408	-0.0117
801.714	-0.001
802.02	-0.0036
802.325	0.0044
802.631	-0.0035
802.936	-0.0015
803.242	-0.0015
803.547	-0.0035
803.852	-0.0025
804.157	-0.006
804.462	-0.0031
804.768	-0.0025
805.073	-0.0063
805.378	-0.0071
805.682	-0.0079
805.987	-0.0053
806.292	-0.0042
806.597	-0.005
806.902	0.002
807.206	-0.0051
807.511	-0.0096
807.815	-0.0129
808.12	-0.0104
808.424	0.0004
808.728	-0.0081
809.033	0.0045
809.337	-0.0017
809.641	0.0013
809.945	-0.0085
810.249	-0.0127
810.553	-0.0135
810.857	-0.0196
811.161	-0.0187
811.465	-0.0153
811.768	-0.0064
812.072	-0.0038
812.376	-0.0043
812.679	-0.003
812.983	-0.0024
813.286	-0.0097
813.59	-0.006
813.893	-0.0009
814.196	0.0046
814.499	0.0007
814.803	-0.0077
815.106	0.0004
815.409	0.0006
815.712	0.0134
816.015	0.0074
816.318	0.0156
816.62	0.0136
816.923	0.0091
817.226	-0.0015
817.528	-0.0101
817.831	-0.0048
818.133	-0.0051
818.436	-0.0034
818.738	-0.0071
819.041	-0.0075
819.343	-0.0042
819.645	-0.0033
819.947	0.0044
820.249	-0.0088
820.551	-0.0054
820.853	-0.0137
821.155	-0.0008
821.457	-0.01
821.759	-0.01
822.061	-0.0125
822.362	-0.0045
822.664	0.0033
822.966	0.0069
823.267	0.0087
823.569	0.0086
823.87	0.006
824.171	-0.0015
824.473	-0.0092
824.774	-0.0058
825.075	0.0001
825.376	0.0054
825.677	0.0021
825.978	-0.0002
826.279	-0.0057
826.58	-0.0138
826.881	-0.0149
827.181	-0.0077
827.482	0.0005
827.783	-0.0043
828.083	-0.0093
828.384	-0.0052
828.684	-0.0042
828.985	-0.0073
829.285	-0.0089
829.585	-0.0046
829.885	0.0018
830.185	0.0047
830.486	0.0014
830.786	-0.0004
831.086	-0.0034
831.385	-0.0031
831.685	-0.0021
831.985	-0.0008
832.285	0.0055
832.585	0.0175
832.884	0.0078
833.184	-0.0004
833.483	-0.0141
833.783	-0.0035
834.082	-0.004
834.381	-0.0062
834.681	-0.0117
834.98	-0.0069
835.279	-0.005
835.578	-0.0044
835.877	-0.0092
836.176	-0.0136
836.475	-0.0065
836.774	-0.0086
837.072	-0.0097
837.371	-0.0089
837.67	0.0056
837.968	0.0086
838.267	0.0002
838.565	-0.0079
838.864	-0.0064
839.162	-0.0117
839.46	-0.014
839.759	-0.0185
840.057	-0.0079
840.355	-0.0053
840.653	0.0033
840.951	0.0028
841.249	0.004
841.547	0.0028
841.845	-0.0103
842.142	-0.0046
842.44	-0.0153
842.738	-0.0086
843.035	-0.0232
843.333	-0.0271
843.63	-0.0292
843.928	-0.023
844.225	-0.005
844.522	0.0052
844.82	0.0083
845.117	0.006
845.414	-0.0106
845.711	-0.0129
846.008	-0.0153
846.305	-0.0012
846.602	-0.0094
846.898	-0.009
847.195	-0.0224
847.492	-0.0192
847.788	-0.0386
848.085	-0.0327
848.382	-0.0238
848.678	-0.0109
848.974	-0.0013
849.271	-0.0078
849.567	0.0049
849.863	-0.0026
850.159	-0.0083
850.455	-0.0117
850.751	-0.0017
851.047	0.0019
851.343	-0.0114
851.639	-0.0189
851.935	-0.0102
852.23	-0.0068
852.526	-0.0052
852.822	-0.0089
853.117	-0.0014
853.413	-0.0123
853.708	-0.0227
854.003	-0.0263
854.299	-0.0208
854.594	-0.0216
854.889	-0.0123
855.184	-0.0302
855.479	-0.0222
855.774	-0.0306
856.069	-0.0099
856.364	-0.0008
856.659	0.0041
856.954	-0.0117
857.248	-0.0278
857.543	-0.0266
857.837	-0.0322
858.132	-0.0096
858.426	-0.0135
858.721	0.0055
859.015	-0.0015
859.309	-0.0075
859.604	0.0171
859.898	0.013
860.192	-0.0007
860.486	-0.009
860.78	-0.0062
861.074	0.0104
861.367	-0.0089
861.661	-0.0158
861.955	-0.0073
862.248	0.0076
862.542	0.0081
862.836	-0.0039
863.129	-0.0231
863.422	-0.0383
863.716	-0.0115
864.009	-0.0135
864.302	0.0052
864.595	-0.0197
864.889	-0.0173
865.182	-0.021
865.475	0.0014
865.767	-0.005
866.06	0.01
866.353	-0.0039
866.646	0.0013
866.938	-0.0227
867.231	-0.0059
867.524	0.008
867.816	0.0282
868.109	0.0014
868.401	-0.0129
868.693	-0.023
868.985	0.0101
869.278	0.0154
869.57	0.0188
869.862	-0.0081
870.154	-0.0126
870.446	-0.0232
870.738	-0.0148
871.029	0.0002
871.321	0.0127
871.613	0
871.904	-0.0156
872.196	-0.0455
872.487	-0.0543
872.779	-0.0301
873.07	0.0043
873.362	0.0022
873.653	-0.0351
873.944	-0.0726
874.235	-0.0449
874.526	-0.0049
874.817	0.029
875.108	0.0541
875.399	0.0172
875.69	-0.018
875.981	-0.0623
876.271	-0.0437
876.562	-0.0179
876.853	0.0014
877.143	0.0006
877.434	-0.0051
877.724	-0.0091
878.014	0.0017
878.305	0.0311
878.595	0.0378
878.885	0.0163
879.175	0.0052
879.465	0.0026
879.755	0.0327
880.045	0.0157
880.335	0.0083
880.624	-0.0246
880.914	-0.0246
