Data from SC_080717-2_1a_Absorbance_11-04-13-075.txt Node
Date: Fri Aug 11 11:04:13 MDT 2017
User: Tank Lab
Spectrometer: FLMS01220
Trigger mode: 0
Integration Time (sec): 1.000000E-1
Scans to average: 10
Electric dark correction enabled: true
Nonlinearity correction enabled: false
Boxcar width: 1
XAxis mode: Wavelengths
Number of Pixels in Spectrum: 2048
>>>>>Begin Spectral Data<<<<<
179.47	-0.0381
179.856	-0.0381
180.241	0.3992
180.626	-0
181.011	0.2718
181.396	-0.1383
181.781	0.1191
182.166	-0
182.551	-0
182.936	-0
183.321	-0
183.706	-0.1602
184.091	-0
184.476	-0.3597
184.86	0.5762
185.245	0.5235
185.63	-0
186.015	-0
186.399	-0
186.784	-0.31
187.169	-0.4286
187.553	-0
187.938	0.2599
188.322	0.1241
188.707	0.0787
189.091	0.0473
189.475	0.0699
189.86	0.1022
190.244	0.1665
190.629	0.1808
191.013	0.2089
191.397	0.2416
191.781	0.3178
192.165	0.3872
192.55	0.4093
192.934	0.4483
193.318	0.4511
193.702	0.4708
194.086	0.4607
194.47	0.4638
194.854	0.4815
195.238	0.4806
195.622	0.4802
196.006	0.4758
196.389	0.4717
196.773	0.4589
197.157	0.4529
197.541	0.4427
197.924	0.4429
198.308	0.4263
198.692	0.4172
199.075	0.4023
199.459	0.3973
199.843	0.3911
200.226	0.383
200.61	0.38
200.993	0.3714
201.376	0.3647
201.76	0.3547
202.143	0.3507
202.527	0.3509
202.91	0.3454
203.293	0.3388
203.676	0.3316
204.059	0.3293
204.443	0.3189
204.826	0.3101
205.209	0.303
205.592	0.3039
205.975	0.3039
206.358	0.2998
206.741	0.2996
207.124	0.2978
207.507	0.2944
207.89	0.2882
208.273	0.2827
208.655	0.2838
209.038	0.278
209.421	0.2743
209.804	0.2684
210.186	0.2691
210.569	0.2698
210.951	0.2675
211.334	0.2656
211.717	0.2628
212.099	0.2633
212.482	0.2609
212.864	0.2594
213.246	0.2536
213.629	0.2501
214.011	0.2476
214.393	0.2495
214.776	0.2488
215.158	0.2462
215.54	0.2418
215.922	0.243
216.305	0.2398
216.687	0.237
217.069	0.2316
217.451	0.2324
217.833	0.2314
218.215	0.2295
218.597	0.2248
218.979	0.2222
219.361	0.2202
219.742	0.2175
220.124	0.2138
220.506	0.2084
220.888	0.206
221.27	0.2031
221.651	0.2025
222.033	0.2022
222.415	0.2001
222.796	0.1989
223.178	0.1965
223.559	0.1978
223.941	0.1947
224.322	0.192
224.704	0.1874
225.085	0.1884
225.466	0.1857
225.848	0.1821
226.229	0.1747
226.61	0.1735
226.992	0.1738
227.373	0.1741
227.754	0.1696
228.135	0.1659
228.516	0.1647
228.897	0.1663
229.278	0.1636
229.659	0.1615
230.04	0.1577
230.421	0.1571
230.802	0.1546
231.183	0.1556
231.564	0.1554
231.944	0.1543
232.325	0.152
232.706	0.1501
233.087	0.1479
233.467	0.1449
233.848	0.1432
234.229	0.1425
234.609	0.1421
234.99	0.141
235.37	0.1411
235.751	0.1413
236.131	0.1407
236.511	0.1388
236.892	0.1359
237.272	0.135
237.652	0.1342
238.033	0.133
238.413	0.1312
238.793	0.1304
239.173	0.1303
239.553	0.1289
239.933	0.1281
240.313	0.1284
240.694	0.1286
241.074	0.1269
241.453	0.1258
241.833	0.1232
242.213	0.1231
242.593	0.1212
242.973	0.1225
243.353	0.1209
243.732	0.1215
244.112	0.1205
244.492	0.1201
244.872	0.1193
245.251	0.1184
245.631	0.1176
246.01	0.1162
246.39	0.1176
246.769	0.1184
247.149	0.1182
247.528	0.1167
247.908	0.1149
248.287	0.1142
248.666	0.1126
249.045	0.1125
249.425	0.1127
249.804	0.1121
250.183	0.1103
250.562	0.1084
250.941	0.1083
251.32	0.1101
251.699	0.1109
252.078	0.1102
252.457	0.108
252.836	0.107
253.215	0.1059
253.594	0.1054
253.973	0.1043
254.352	0.1051
254.731	0.1045
255.109	0.105
255.488	0.1033
255.867	0.1033
256.245	0.1037
256.624	0.1036
257.002	0.1033
257.381	0.1019
257.759	0.1024
258.138	0.1019
258.516	0.1021
258.895	0.1013
259.273	0.1021
259.651	0.101
260.03	0.0999
260.408	0.0987
260.786	0.0989
261.164	0.0984
261.542	0.0996
261.921	0.0984
262.299	0.097
262.677	0.0948
263.055	0.0949
263.433	0.0948
263.811	0.0951
264.188	0.0949
264.566	0.0954
264.944	0.0953
265.322	0.0952
265.7	0.0956
266.077	0.0945
266.455	0.0948
266.833	0.0933
267.21	0.0933
267.588	0.0912
267.966	0.0909
268.343	0.0893
268.721	0.0895
269.098	0.0904
269.475	0.0915
269.853	0.089
270.23	0.0873
270.607	0.0869
270.985	0.0878
271.362	0.0871
271.739	0.085
272.116	0.0837
272.494	0.0854
272.871	0.0845
273.248	0.0836
273.625	0.0814
274.002	0.0803
274.379	0.0816
274.756	0.0828
275.132	0.085
275.509	0.0847
275.886	0.0833
276.263	0.0807
276.64	0.0802
277.016	0.0791
277.393	0.0792
277.77	0.0774
278.146	0.0776
278.523	0.0769
278.899	0.077
279.276	0.0771
279.652	0.078
280.029	0.0779
280.405	0.0775
280.782	0.078
281.158	0.0776
281.534	0.0765
281.91	0.073
282.287	0.0723
282.663	0.0722
283.039	0.0733
283.415	0.073
283.791	0.0723
284.167	0.0705
284.543	0.071
284.919	0.0697
285.295	0.0709
285.671	0.0692
286.047	0.0691
286.423	0.0686
286.799	0.0689
287.174	0.0698
287.55	0.0702
287.926	0.0701
288.301	0.0675
288.677	0.0656
289.053	0.0643
289.428	0.0654
289.804	0.0659
290.179	0.0661
290.555	0.0651
290.93	0.063
291.305	0.062
291.681	0.0616
292.056	0.0626
292.431	0.0615
292.806	0.0613
293.182	0.0617
293.557	0.0633
293.932	0.0628
294.307	0.0625
294.682	0.0601
295.057	0.0593
295.432	0.0591
295.807	0.0605
296.182	0.0612
296.557	0.059
296.932	0.0595
297.306	0.0587
297.681	0.0596
298.056	0.0568
298.43	0.0568
298.805	0.0551
299.18	0.055
299.554	0.0554
299.929	0.0567
300.303	0.0568
300.678	0.0552
301.052	0.055
301.427	0.0551
301.801	0.0549
302.175	0.0529
302.55	0.0535
302.924	0.0546
303.298	0.0553
303.672	0.0534
304.046	0.0515
304.421	0.0522
304.795	0.0547
305.169	0.0551
305.543	0.0536
305.917	0.0521
306.291	0.052
306.664	0.0518
307.038	0.0496
307.412	0.0483
307.786	0.0484
308.16	0.0494
308.533	0.0488
308.907	0.0488
309.281	0.048
309.654	0.0488
310.028	0.0475
310.401	0.048
310.775	0.0475
311.148	0.0489
311.522	0.0481
311.895	0.0489
312.268	0.047
312.642	0.0468
313.015	0.0463
313.388	0.0454
313.761	0.0445
314.135	0.0421
314.508	0.0437
314.881	0.0432
315.254	0.0437
315.627	0.0419
316	0.0425
316.373	0.0435
316.746	0.0442
317.118	0.0433
317.491	0.042
317.864	0.0418
318.237	0.0419
318.61	0.042
318.982	0.0417
319.355	0.04
319.727	0.0381
320.1	0.0396
320.473	0.0396
320.845	0.04
321.218	0.0382
321.59	0.0382
321.962	0.0395
322.335	0.0368
322.707	0.0363
323.079	0.036
323.452	0.038
323.824	0.039
324.196	0.0393
324.568	0.0386
324.94	0.0382
325.312	0.0368
325.684	0.0371
326.056	0.0361
326.428	0.036
326.8	0.0339
327.172	0.0348
327.544	0.0342
327.915	0.0341
328.287	0.0347
328.659	0.0339
329.031	0.0343
329.402	0.0327
329.774	0.034
330.145	0.0323
330.517	0.0322
330.888	0.0316
331.26	0.0333
331.631	0.0317
332.003	0.0299
332.374	0.0307
332.745	0.033
333.117	0.0337
333.488	0.0322
333.859	0.0326
334.23	0.0326
334.601	0.0326
334.972	0.0313
335.343	0.0299
335.714	0.0291
336.085	0.0274
336.456	0.0281
336.827	0.0262
337.198	0.0259
337.569	0.0243
337.94	0.0267
338.31	0.0284
338.681	0.0297
339.052	0.0294
339.422	0.0273
339.793	0.0269
340.164	0.0263
340.534	0.0288
340.905	0.0288
341.275	0.028
341.645	0.0263
342.016	0.0269
342.386	0.0274
342.756	0.0277
343.127	0.0261
343.497	0.0257
343.867	0.0252
344.237	0.0251
344.607	0.0231
344.977	0.0234
345.347	0.0226
345.717	0.0244
346.087	0.0227
346.457	0.0221
346.827	0.0207
347.197	0.0215
347.567	0.0224
347.936	0.0231
348.306	0.0231
348.676	0.0237
349.046	0.0227
349.415	0.0222
349.785	0.0221
350.154	0.0227
350.524	0.0224
350.893	0.0221
351.263	0.0207
351.632	0.0204
352.001	0.0195
352.371	0.021
352.74	0.021
353.109	0.0209
353.478	0.0201
353.847	0.021
354.217	0.0207
354.586	0.0208
354.955	0.0187
355.324	0.0202
355.693	0.0213
356.062	0.0207
356.43	0.0198
356.799	0.0188
357.168	0.0201
357.537	0.0185
357.906	0.0179
358.274	0.019
358.643	0.0204
359.011	0.021
359.38	0.0197
359.749	0.0184
360.117	0.0194
360.486	0.0195
360.854	0.0215
361.222	0.0188
361.591	0.0152
361.959	0.013
362.327	0.013
362.695	0.0159
363.064	0.0188
363.432	0.0175
363.8	0.0162
364.168	0.0155
364.536	0.0162
364.904	0.0169
365.272	0.0149
365.64	0.0148
366.008	0.0148
366.376	0.0158
366.743	0.0163
367.111	0.0134
367.479	0.012
367.847	0.0113
368.214	0.0144
368.582	0.0159
368.949	0.0165
369.317	0.017
369.684	0.0177
370.052	0.0181
370.419	0.0172
370.787	0.0146
371.154	0.0135
371.521	0.0131
371.889	0.0132
372.256	0.0127
372.623	0.0124
372.99	0.0131
373.357	0.0131
373.724	0.0129
374.091	0.0121
374.458	0.0134
374.825	0.0147
375.192	0.015
375.559	0.014
375.926	0.0132
376.293	0.0102
376.659	0.0135
377.026	0.0137
377.393	0.0175
377.759	0.0134
378.126	0.0129
378.492	0.0098
378.859	0.0111
379.225	0.0108
379.592	0.0128
379.958	0.0134
380.325	0.0129
380.691	0.0125
381.057	0.0114
381.423	0.0116
381.79	0.0096
382.156	0.0081
382.522	0.0075
382.888	0.0092
383.254	0.0083
383.62	0.01
383.986	0.0086
384.352	0.0114
384.718	0.0098
385.084	0.0111
385.449	0.0102
385.815	0.0098
386.181	0.0099
386.547	0.0114
386.912	0.0112
387.278	0.0117
387.643	0.0095
388.009	0.0088
388.374	0.0079
388.74	0.0086
389.105	0.0104
389.471	0.0096
389.836	0.0076
390.201	0.0073
390.566	0.0073
390.932	0.0081
391.297	0.0088
391.662	0.0093
392.027	0.0102
392.392	0.0108
392.757	0.0118
393.122	0.0117
393.487	0.0108
393.852	0.0099
394.217	0.0078
394.582	0.0061
394.946	0.0072
395.311	0.0089
395.676	0.0102
396.04	0.0077
396.405	0.0074
396.77	0.0058
397.134	0.0089
397.499	0.0084
397.863	0.0072
398.227	0.005
398.592	0.0054
398.956	0.007
399.32	0.0082
399.685	0.0098
400.049	0.0104
400.413	0.0102
400.777	0.0069
401.141	0.0062
401.505	0.005
401.869	0.0067
402.233	0.0078
402.597	0.0093
402.961	0.0084
403.325	0.0087
403.689	0.0071
404.053	0.0065
404.416	0.0025
404.78	0.0026
405.144	0.0029
405.507	0.0069
405.871	0.0092
406.234	0.0124
406.598	0.0106
406.961	0.0109
407.325	0.0098
407.688	0.0081
408.051	0.0056
408.415	0.004
408.778	0.0047
409.141	0.0052
409.504	0.0048
409.867	0.0047
410.23	0.0038
410.593	0.0055
410.956	0.0065
411.319	0.007
411.682	0.007
412.045	0.0053
412.408	0.0077
412.771	0.0085
413.134	0.009
413.496	0.0061
413.859	0.0032
414.222	0.0027
414.584	0.0019
414.947	0.0032
415.309	0.0047
415.672	0.0046
416.034	0.0036
416.396	0.0025
416.759	0.0028
417.121	0.0041
417.483	0.0066
417.846	0.0087
418.208	0.0086
418.57	0.0057
418.932	0.0046
419.294	0.0056
419.656	0.0052
420.018	0.0047
420.38	0.0026
420.742	0.0044
421.104	0.0018
421.466	0.0034
421.827	0.0047
422.189	0.0073
422.551	0.0067
422.912	0.0038
423.274	0.002
423.636	0.0019
423.997	0.003
424.359	0.0061
424.72	0.0058
425.081	0.0038
425.443	0.001
425.804	0.0005
426.165	0.0012
426.527	0.003
426.888	0.0034
427.249	0.0023
427.61	-0
427.971	-0.0004
428.332	0.001
428.693	0.0057
429.054	0.0059
429.415	0.007
429.776	0.0039
430.137	0.0046
430.498	0.0032
430.858	0.0007
431.219	0.0003
431.58	0.0009
431.94	0.0028
432.301	0.0008
432.661	0.001
433.022	0.0026
433.382	0.0049
433.743	0.0056
434.103	0.004
434.463	0.0037
434.824	0.0036
435.184	0.0049
435.544	0.0039
435.904	0.0027
436.264	0.0014
436.624	0.0021
436.985	0.0011
437.345	0.0013
437.704	0.002
438.064	0.0027
438.424	0.0017
438.784	-0.0001
439.144	-0.0023
439.504	-0.0036
439.863	-0.0022
440.223	0.0007
440.583	0.006
440.942	0.0065
441.302	0.006
441.661	0.0013
442.021	0.0009
442.38	0.0028
442.739	0.0046
443.099	0.0027
443.458	0.0038
443.817	0.0055
444.176	0.0053
444.536	0.0008
444.895	-0.003
445.254	-0.0012
445.613	0.0017
445.972	0.0008
446.331	0.0028
446.69	0.001
447.049	0.0036
447.407	0.0002
447.766	-0.0002
448.125	-0.0007
448.484	-0.0002
448.842	-0.0002
449.201	-0.0004
449.559	-0.001
449.918	-0.0006
450.276	-0.0002
450.635	0.0009
450.993	0.0011
451.352	0.0019
451.71	0.0006
452.068	0.0004
452.426	-0.0009
452.785	0.0017
453.143	0.0013
453.501	-0.0004
453.859	-0.0028
454.217	-0.0022
454.575	-0.0001
454.933	0.0008
455.291	0.0017
455.649	0.004
456.006	0.0025
456.364	0.0026
456.722	0.0001
457.079	0.0019
457.437	-0.0004
457.795	0.0009
458.152	-0.0025
458.51	-0.0003
458.867	0.0008
459.225	0.0028
459.582	-0
459.939	-0.0017
460.297	0.0022
460.654	0.0026
461.011	0.0017
461.368	-0.0033
461.725	-0.001
462.082	-0.0036
462.44	-0
462.797	0.0007
463.153	0.0053
463.51	0.0027
463.867	-0.001
464.224	-0.0019
464.581	0.0002
464.938	0.0033
465.294	0.0028
465.651	0.0013
466.008	0.0007
466.364	-0.0017
466.721	-0.0018
467.077	0.001
467.434	0.0021
467.79	0.0024
468.146	0.0014
468.503	0.0022
468.859	0.003
469.215	0.0028
469.571	0.0018
469.927	-0.0015
470.284	-0.0046
470.64	-0.0049
470.996	-0.0024
471.352	0.0005
471.707	0.001
472.063	-0.0012
472.419	-0.0006
472.775	0.0024
473.131	0.0045
473.486	0.0037
473.842	0.0003
474.198	0.0013
474.553	0.0009
474.909	0.004
475.264	0.0025
475.62	0.0024
475.975	0.0026
476.331	0.0032
476.686	-0.0008
477.041	-0.0024
477.396	-0.0038
477.752	-0.0002
478.107	-0.0009
478.462	0.0005
478.817	-0.0006
479.172	0.0013
479.527	0.0012
479.882	0.0019
480.237	-0.0008
480.591	-0.0031
480.946	-0.0015
481.301	0.0016
481.656	0.0034
482.01	0.0027
482.365	-0.0005
482.72	-0.0026
483.074	-0.0023
483.429	-0.0003
483.783	0.0024
484.137	0.0006
484.492	-0.0002
484.846	-0.0008
485.2	-0.0014
485.555	-0.0037
485.909	-0.004
486.263	-0.0023
486.617	0.0003
486.971	0.0005
487.325	0.0017
487.679	0.0002
488.033	-0.0006
488.387	-0.0032
488.741	-0.002
489.094	-0.0027
489.448	-0.0028
489.802	-0.0031
490.156	-0.0005
490.509	0.0011
490.863	0.0018
491.216	-0.0001
491.57	-0.0024
491.923	-0.0033
492.277	-0.0014
492.63	-0
492.983	-0.0002
493.337	-0.0004
493.69	-0.0015
494.043	-0.0023
494.396	-0.0049
494.749	-0.0013
495.102	-0.002
495.455	-0.0015
495.808	-0.0036
496.161	-0.0018
496.514	-0.0025
496.867	-0.0022
497.22	-0.0018
497.572	-0.0001
497.925	0.0004
498.278	-0.0028
498.63	-0.004
498.983	-0.0042
499.335	-0.0024
499.688	-0.0012
500.04	-0.0016
500.393	0.0006
500.745	-0.0003
501.097	-0.0008
501.449	-0.0017
501.802	-0.0023
502.154	-0.003
502.506	-0.0024
502.858	-0.0022
503.21	-0.0023
503.562	-0.0026
503.914	-0.0025
504.266	-0.0003
504.618	-0.0001
504.969	-0.0005
505.321	-0.0035
505.673	-0.0027
506.025	0.0017
506.376	0.0058
506.728	0.0046
507.079	0.0011
507.431	-0.0005
507.782	-0.0008
508.134	-0.0021
508.485	-0.0005
508.836	-0.0028
509.188	-0.0012
509.539	-0.0033
509.89	-0.0007
510.241	-0.0022
510.592	-0.0027
510.943	-0.0053
511.294	-0.004
511.645	-0.0022
511.996	0.003
512.347	0.0017
512.698	-0.0028
513.049	-0.0087
513.399	-0.0082
513.75	-0.0034
514.101	-0.0024
514.451	-0.001
514.802	-0.0027
515.152	-0.0011
515.503	-0.001
515.853	-0.0016
516.203	-0.0026
516.554	-0.0013
516.904	-0.0012
517.254	0.002
517.604	-0.001
517.955	-0.0022
518.305	-0.0062
518.655	-0.0055
519.005	-0.0064
519.355	-0.0051
519.705	-0.0046
520.055	-0.0046
520.404	-0.0075
520.754	-0.008
521.104	-0.0077
521.454	-0.0046
521.803	-0.0046
522.153	-0.0038
522.502	-0.0018
522.852	-0.002
523.201	-0.001
523.551	-0.0024
523.9	0.0001
524.249	-0.0025
524.599	-0.0036
524.948	-0.007
525.297	-0.0042
525.646	-0.0038
525.995	-0.0027
526.344	-0.0005
526.694	-0.0006
527.042	0.0034
527.391	-0.0003
527.74	0.0001
528.089	-0.003
528.438	-0.0013
528.787	-0.0008
529.135	-0.0008
529.484	0.001
529.833	0.0019
530.181	0.0015
530.53	0.0002
530.878	-0.0033
531.227	-0.002
531.575	-0.0026
531.923	-0.0005
532.271	-0.0021
532.62	-0.0013
532.968	-0.0019
533.316	-0.0024
533.664	-0.0057
534.012	-0.0054
534.36	-0.006
534.708	-0.0034
535.056	-0.0037
535.404	-0.0016
535.752	-0.0022
536.1	-0.004
536.447	-0.0058
536.795	-0.0035
537.143	-0.0027
537.49	-0.0002
537.838	-0.0047
538.185	-0.0019
538.533	-0.0042
538.88	-0.0029
539.228	-0.0065
539.575	-0.0037
539.922	-0.0009
540.269	-0.001
540.617	-0.0038
540.964	-0.0071
541.311	-0.0066
541.658	-0.0081
542.005	-0.0048
542.352	-0.0047
542.699	-0.0033
543.045	-0.0059
543.392	-0.0057
543.739	-0.0041
544.086	-0.0038
544.432	-0.0013
544.779	-0.0046
545.126	-0.0047
545.472	-0.0064
545.819	-0.005
546.165	-0.0059
546.512	-0.0098
546.858	-0.0094
547.204	-0.0072
547.55	-0.0034
547.897	-0.0028
548.243	-0.0051
548.589	-0.0109
548.935	-0.0121
549.281	-0.0103
549.627	-0.0054
549.973	-0.0035
550.319	-0.0014
550.665	-0.0037
551.01	-0.006
551.356	-0.0063
551.702	-0.0056
552.048	-0.0034
552.393	-0.006
552.739	-0.0019
553.084	-0.0052
553.43	-0.004
553.775	-0.0068
554.12	-0.0052
554.466	-0.005
554.811	-0.0047
555.156	-0.0056
555.502	-0.007
555.847	-0.0068
556.192	-0.005
556.537	-0.0062
556.882	-0.0082
557.227	-0.0108
557.572	-0.0101
557.917	-0.009
558.261	-0.006
558.606	-0.0039
558.951	-0.006
559.295	-0.0081
559.64	-0.0096
559.985	-0.0023
560.329	0.0011
560.674	-0.0017
561.018	-0.0073
561.363	-0.0101
561.707	-0.0095
562.051	-0.0073
562.395	-0.0092
562.74	-0.0066
563.084	-0.0076
563.428	-0.0075
563.772	-0.0052
564.116	-0.0052
564.46	-0.0043
564.804	-0.0069
565.148	-0.0037
565.492	-0.0022
565.835	-0.0024
566.179	-0.0059
566.523	-0.0086
566.866	-0.0098
567.21	-0.0113
567.554	-0.0086
567.897	-0.0071
568.24	-0.0041
568.584	-0.0057
568.927	-0.0056
569.271	-0.008
569.614	-0.0037
569.957	-0.0018
570.3	-0.0035
570.643	-0.0065
570.986	-0.0096
571.329	-0.0056
571.672	-0.0088
572.015	-0.0082
572.358	-0.0109
572.701	-0.0072
573.044	-0.0067
573.387	-0.0038
573.729	-0.0031
574.072	-0.0042
574.414	-0.0046
574.757	-0.0071
575.099	-0.0062
575.442	-0.0067
575.784	-0.0071
576.127	-0.0062
576.469	-0.008
576.811	-0.0075
577.153	-0.0082
577.496	-0.0086
577.838	-0.009
578.18	-0.0094
578.522	-0.0079
578.864	-0.0064
579.206	-0.0072
579.548	-0.0072
579.889	-0.0062
580.231	-0.006
580.573	-0.0081
580.915	-0.0091
581.256	-0.01
581.598	-0.0093
581.939	-0.0083
582.281	-0.0101
582.622	-0.0092
582.964	-0.01
583.305	-0.0068
583.646	-0.0054
583.988	-0.0048
584.329	-0.0054
584.67	-0.0062
585.011	-0.0061
585.352	-0.0072
585.693	-0.0076
586.034	-0.0077
586.375	-0.0063
586.716	-0.0099
587.057	-0.0118
587.398	-0.0107
587.738	-0.0085
588.079	-0.0073
588.42	-0.0072
588.76	-0.0058
589.101	-0.0065
589.441	-0.0062
589.782	-0.0051
590.122	-0.0063
590.463	-0.0064
590.803	-0.0096
591.143	-0.0106
591.483	-0.0128
591.823	-0.01
592.164	-0.0087
592.504	-0.0058
592.844	-0.0083
593.184	-0.0085
593.523	-0.0118
593.863	-0.0105
594.203	-0.0085
594.543	-0.0076
594.883	-0.0064
595.222	-0.0049
595.562	-0.0066
595.901	-0.0079
596.241	-0.0088
596.58	-0.0073
596.92	-0.0066
597.259	-0.0057
597.599	-0.0069
597.938	-0.0069
598.277	-0.0059
598.616	-0.0053
598.955	-0.0052
599.295	-0.0086
599.634	-0.0052
599.973	-0.0083
600.312	-0.008
600.65	-0.0102
600.989	-0.0064
601.328	-0.0048
601.667	-0.0044
602.005	-0.0063
602.344	-0.0078
602.683	-0.0091
603.021	-0.0084
603.36	-0.0103
603.698	-0.0119
604.037	-0.0146
604.375	-0.0118
604.713	-0.0075
605.052	-0.004
605.39	-0.0057
605.728	-0.0079
606.066	-0.01
606.404	-0.0099
606.742	-0.0105
607.08	-0.0127
607.418	-0.0102
607.756	-0.0106
608.094	-0.0058
608.431	-0.0056
608.769	-0.007
609.107	-0.0071
609.444	-0.0094
609.782	-0.0055
610.12	-0.0065
610.457	-0.0062
610.794	-0.0065
611.132	-0.0062
611.469	-0.0073
611.806	-0.0121
612.144	-0.0128
612.481	-0.0125
612.818	-0.0103
613.155	-0.0134
613.492	-0.0118
613.829	-0.0078
614.166	-0.0049
614.503	-0.0046
614.84	-0.0075
615.176	-0.0073
615.513	-0.0065
615.85	-0.0041
616.187	-0.0029
616.523	-0.0046
616.86	-0.0066
617.196	-0.0095
617.533	-0.0101
617.869	-0.0083
618.205	-0.0089
618.542	-0.0104
618.878	-0.0134
619.214	-0.0081
619.55	-0.0051
619.886	-0.0043
620.222	-0.003
620.558	-0.0043
620.894	-0.0023
621.23	-0.0112
621.566	-0.0098
621.902	-0.0152
622.238	-0.0118
622.573	-0.0148
622.909	-0.0123
623.244	-0.0123
623.58	-0.0105
623.916	-0.0069
624.251	-0.0024
624.586	-0.0028
624.922	-0.0061
625.257	-0.0085
625.592	-0.0079
625.927	-0.0093
626.263	-0.0094
626.598	-0.013
626.933	-0.0118
627.268	-0.0094
627.603	-0.0045
627.938	-0.0016
628.272	-0.0052
628.607	-0.0062
628.942	-0.0094
629.277	-0.0071
629.611	-0.0036
629.946	-0.0056
630.281	-0.005
630.615	-0.0101
630.949	-0.0095
631.284	-0.0093
631.618	-0.0077
631.953	-0.0081
632.287	-0.0115
632.621	-0.0147
632.955	-0.0116
633.289	-0.0129
633.623	-0.0126
633.957	-0.0131
634.291	-0.0097
634.625	-0.0083
634.959	-0.0098
635.293	-0.008
635.627	-0.0077
635.96	-0.0039
636.294	-0.005
636.627	-0.0098
636.961	-0.0132
637.294	-0.0108
637.628	-0.0048
637.961	-0.011
638.295	-0.0094
638.628	-0.007
638.961	0.0037
639.294	0
639.628	-0.0065
639.961	-0.012
640.294	-0.0153
640.627	-0.014
640.96	-0.013
641.293	-0.0153
641.625	-0.0115
641.958	-0.0069
642.291	-0.004
642.624	-0.0064
642.956	-0.0105
643.289	-0.0089
643.621	-0.0058
643.954	-0.0078
644.286	-0.0097
644.619	-0.0114
644.951	-0.0097
645.283	-0.0022
645.616	-0.0034
645.948	-0.0039
646.28	-0.0085
646.612	-0.0092
646.944	-0.0111
647.276	-0.0143
647.608	-0.0134
647.94	-0.0122
648.272	-0.0104
648.603	-0.0096
648.935	-0.0115
649.267	-0.0101
649.598	-0.0087
649.93	-0.0029
650.261	-0.001
650.593	-0.0048
650.924	-0.006
651.256	-0.0088
651.587	-0.0099
651.918	-0.0098
652.25	-0.0134
652.581	-0.0135
652.912	-0.0179
653.243	-0.0174
653.574	-0.0139
653.905	-0.013
654.236	-0.0118
654.567	-0.0102
654.897	-0.0108
655.228	-0.0048
655.559	-0.0021
655.89	-0.0022
656.22	-0.0089
656.551	-0.0117
656.881	-0.0048
657.212	-0.0022
657.542	0.0002
657.872	-0.0027
658.203	-0
658.533	-0.005
658.863	-0.0068
659.193	-0.0087
659.523	-0.0115
659.853	-0.0152
660.183	-0.0153
660.513	-0.0105
660.843	-0.0079
661.173	-0.0044
661.503	-0.0084
661.833	-0.0117
662.162	-0.0154
662.492	-0.0118
662.822	-0.0103
663.151	-0.0103
663.481	-0.0164
663.81	-0.0147
664.139	-0.0154
664.469	-0.0129
664.798	-0.0089
665.127	-0.0061
665.456	-0.0041
665.785	-0.0083
666.114	-0.0063
666.443	-0.0028
666.772	0.0014
667.101	-0.0006
667.43	-0.0055
667.759	-0.0103
668.088	-0.0086
668.416	-0.008
668.745	-0.0101
669.074	-0.0145
669.402	-0.0136
669.731	-0.0096
670.059	-0.0106
670.388	-0.0099
670.716	-0.011
671.044	-0.0081
671.372	-0.0087
671.701	-0.0059
672.029	-0.0064
672.357	-0.0088
672.685	-0.0101
673.013	-0.0127
673.341	-0.0113
673.669	-0.0108
673.996	-0.0066
674.324	-0.0025
674.652	-0.0054
674.98	-0.0063
675.307	-0.0104
675.635	-0.0129
675.962	-0.0119
676.29	-0.016
676.617	-0.0123
676.945	-0.0175
677.272	-0.0137
677.599	-0.0137
677.926	-0.0112
678.253	-0.0153
678.581	-0.0145
678.908	-0.0147
679.235	-0.0102
679.561	-0.0104
679.888	-0.0078
680.215	-0.0059
680.542	-0.0041
680.869	-0.0038
681.195	-0.0053
681.522	-0.0078
681.849	-0.0078
682.175	-0.0079
682.502	-0.0117
682.828	-0.0154
683.154	-0.014
683.481	-0.0065
683.807	-0.0048
684.133	-0.0024
684.459	-0.0034
684.785	-0.0044
685.111	-0.0109
685.437	-0.0112
685.763	-0.012
686.089	-0.0095
686.415	-0.0115
686.741	-0.0108
687.067	-0.0052
687.392	-0.0058
687.718	-0.003
688.043	-0.0072
688.369	-0.0084
688.694	-0.0124
689.02	-0.0109
689.345	-0.0102
689.67	-0.0078
689.996	-0.0119
690.321	-0.0114
690.646	-0.0091
690.971	-0.0058
691.296	-0.0057
691.621	-0.0056
691.946	-0.0095
692.271	-0.0059
692.596	-0.0069
692.921	-0.0022
693.245	-0.0062
693.57	-0.0047
693.895	-0.008
694.219	-0.0106
694.544	-0.0127
694.868	-0.012
695.193	-0.0072
695.517	-0.0082
695.841	-0.0107
696.166	-0.0092
696.49	-0.0068
696.814	-0.0076
697.138	-0.0095
697.462	-0.0113
697.786	-0.0099
698.11	-0.0067
698.434	-0.0058
698.758	-0.0054
699.081	-0.0108
699.405	-0.0119
699.729	-0.0123
700.052	-0.0092
700.376	-0.0102
700.7	-0.0037
701.023	-0.0055
701.346	-0.0046
701.67	-0.0123
701.993	-0.0087
702.316	-0.0056
702.639	-0.0044
702.963	-0.0036
703.286	-0.0086
703.609	-0.0075
703.932	-0.0137
704.255	-0.0081
704.578	-0.0121
704.9	-0.0121
705.223	-0.02
705.546	-0.0179
705.868	-0.019
706.191	-0.0103
706.514	-0.0117
706.836	-0.0069
707.159	-0.0084
707.481	-0.0039
707.803	-0.0045
708.126	-0.0114
708.448	-0.015
708.77	-0.0147
709.092	-0.0116
709.414	-0.0062
709.736	-0.0115
710.058	-0.0086
710.38	-0.0105
710.702	-0.0055
711.024	-0.0085
711.345	-0.0086
711.667	-0.0128
711.989	-0.0159
712.31	-0.0156
712.632	-0.0142
712.953	-0.0105
713.275	-0.0135
713.596	-0.011
713.917	-0.0073
714.239	-0.005
714.56	-0.0036
714.881	-0.0037
715.202	-0.0017
715.523	-0.0039
715.844	-0.0077
716.165	-0.01
716.486	-0.0086
716.807	-0.009
717.128	-0.0114
717.448	-0.0106
717.769	-0.0065
718.09	-0.0053
718.41	-0.0044
718.731	-0.0055
719.051	-0.009
719.372	-0.0114
719.692	-0.0163
720.012	-0.0138
720.332	-0.0123
720.653	-0.0122
720.973	-0.014
721.293	-0.0131
721.613	-0.0071
721.933	-0.0001
722.253	-0.0007
722.573	-0.0055
722.892	-0.0087
723.212	-0.0093
723.532	-0.0098
723.851	-0.0094
724.171	-0.0132
724.491	-0.0123
724.81	-0.0127
725.129	-0.0123
725.449	-0.0139
725.768	-0.0093
726.087	-0.0069
726.407	-0.0051
726.726	-0.0126
727.045	-0.0077
727.364	-0.0051
727.683	-0.0014
728.002	-0.006
728.321	-0.0075
728.64	-0.0089
728.958	-0.0093
729.277	-0.0086
729.596	-0.006
729.914	-0.0065
730.233	-0.0038
730.551	-0.0071
730.87	-0.0048
731.188	-0.0081
731.507	-0.0068
731.825	-0.0103
732.143	-0.0095
732.461	-0.009
732.779	-0.009
733.097	-0.0095
733.415	-0.0104
733.733	-0.0124
734.051	-0.0121
734.369	-0.0122
734.687	-0.0084
735.005	-0.0091
735.322	-0.0134
735.64	-0.0163
735.957	-0.0193
736.275	-0.0146
736.592	-0.0168
736.91	-0.0131
737.227	-0.0147
737.544	-0.0138
737.862	-0.017
738.179	-0.0128
738.496	-0.0096
738.813	-0.0077
739.13	-0.0104
739.447	-0.0079
739.764	-0.0107
740.081	-0.0141
740.398	-0.0195
740.714	-0.0148
741.031	-0.0127
741.348	-0.0115
741.664	-0.0095
741.981	-0.0114
742.297	-0.0127
742.614	-0.0148
742.93	-0.0071
743.246	-0.0057
743.563	-0.0079
743.879	-0.0145
744.195	-0.0149
744.511	-0.013
744.827	-0.0092
745.143	-0.0106
745.459	-0.0081
745.775	-0.0095
746.091	-0.0088
746.406	-0.0137
746.722	-0.0148
747.038	-0.0161
747.353	-0.0128
747.669	-0.0131
747.984	-0.0075
748.3	-0.0086
748.615	-0.0086
748.93	-0.0085
749.246	-0.0037
749.561	-0.0056
749.876	-0.0064
750.191	-0.0097
750.506	-0.0072
750.821	-0.0066
751.136	-0.0074
751.451	-0.007
751.766	-0.0117
752.08	-0.0147
752.395	-0.0199
752.71	-0.0163
753.024	-0.0161
753.339	-0.0172
753.653	-0.0153
753.968	-0.0144
754.282	-0.0048
754.596	-0.0033
754.911	-0.0124
755.225	-0.0177
755.539	-0.0166
755.853	-0.003
756.167	-0.0044
756.481	-0.0061
756.795	-0.0135
757.109	-0.0143
757.423	-0.0178
757.736	-0.0159
758.05	-0.0091
758.364	-0.0088
758.677	-0.007
758.991	-0.0111
759.304	-0.0152
759.618	-0.0183
759.931	-0.0164
760.244	-0.0107
760.558	-0.0072
760.871	-0.0041
761.184	-0.0046
761.497	-0.0051
761.81	-0.0078
762.123	-0.0092
762.436	-0.0095
762.749	-0.0103
763.062	-0.0069
763.374	-0.0031
763.687	-0.0033
764	-0.0066
764.312	-0.0087
764.625	-0.0061
764.937	-0.009
765.25	-0.0095
765.562	-0.0106
765.874	-0.0081
766.186	-0.008
766.499	-0.0131
766.811	-0.0129
767.123	-0.0184
767.435	-0.0147
767.747	-0.0152
768.059	-0.0134
768.37	-0.0143
768.682	-0.0158
768.994	-0.0145
769.306	-0.0119
769.617	-0.0083
769.929	-0.0089
770.24	-0.0052
770.552	-0.0078
770.863	-0.0055
771.174	-0.0131
771.486	-0.0107
771.797	-0.0132
772.108	-0.0158
772.419	-0.0181
772.73	-0.0161
773.041	-0.0148
773.352	-0.0091
773.663	-0.0087
773.974	-0.0006
774.285	-0.0053
774.595	-0.0006
774.906	-0.0051
775.217	-0.0047
775.527	-0.0117
775.838	-0.0137
776.148	-0.0116
776.458	-0.0065
776.769	-0.0045
777.079	-0.0092
777.389	-0.0159
777.699	-0.0112
778.009	-0.0094
778.319	-0.0045
778.629	-0.0105
778.939	-0.0102
779.249	-0.0121
779.559	-0.0117
779.869	-0.0135
780.178	-0.0139
780.488	-0.0158
780.798	-0.016
781.107	-0.0203
781.417	-0.016
781.726	-0.0145
782.035	-0.0058
782.345	-0.0078
782.654	-0.0102
782.963	-0.0155
783.272	-0.0165
783.581	-0.0142
783.89	-0.0124
784.199	-0.01
784.508	-0.0107
784.817	-0.0102
785.126	-0.0137
785.434	-0.0167
785.743	-0.0164
786.052	-0.0111
786.36	-0.0114
786.669	-0.0178
786.977	-0.024
787.285	-0.0131
787.594	-0.0082
787.902	-0.005
788.21	-0.0148
788.518	-0.0118
788.826	-0.0096
789.135	-0.01
789.442	-0.0174
789.75	-0.0214
790.058	-0.0164
790.366	-0.0121
790.674	-0.0086
790.981	-0.0073
791.289	-0.0095
791.597	-0.0114
791.904	-0.0105
792.212	-0.0097
792.519	-0.0107
792.826	-0.0121
793.134	-0.0107
793.441	-0.01
793.748	-0.0159
794.055	-0.0145
794.362	-0.0131
794.669	-0.0096
794.976	-0.0113
795.283	-0.0176
795.59	-0.0108
795.897	-0.0101
796.203	-0.0081
796.51	-0.0136
796.817	-0.017
797.123	-0.0133
797.43	-0.0114
797.736	-0.0041
798.042	-0.0048
798.349	-0.0027
798.655	-0.0057
798.961	-0.0088
799.267	-0.0142
799.573	-0.0201
799.879	-0.0185
800.185	-0.0189
800.491	-0.011
800.797	-0.0103
801.103	-0.0004
801.408	-0.0041
801.714	-0.0067
802.02	-0.0149
802.325	-0.0077
802.631	-0.0063
802.936	-0.0024
803.242	-0.0058
803.547	-0.0018
803.852	-0.0006
804.157	-0.0026
804.462	-0.0041
804.768	-0.0017
805.073	-0.0049
805.378	-0.0047
805.682	-0.0156
805.987	-0.0136
806.292	-0.0168
806.597	-0.0103
806.902	-0.0085
807.206	-0.0178
807.511	-0.0176
807.815	-0.0218
808.12	-0.006
808.424	-0.0031
808.728	-0.0008
809.033	-0.0055
809.337	-0.0098
809.641	-0.0095
809.945	-0.0142
810.249	-0.0116
810.553	-0.0138
810.857	-0.0126
811.161	-0.013
811.465	-0.0151
811.768	0.0015
812.072	0.0038
812.376	0.0166
812.679	0.0054
812.983	-0.0002
813.286	-0.0144
813.59	-0.0221
813.893	-0.0197
814.196	-0.0111
814.499	-0.0123
814.803	-0.0157
815.106	-0.0187
815.409	-0.0121
815.712	-0.0108
816.015	-0.0092
816.318	-0.0163
816.62	-0.016
816.923	-0.0183
817.226	-0.011
817.528	-0.0112
817.831	-0.0114
818.133	-0.0109
818.436	-0.0024
818.738	0.0075
819.041	0.0097
819.343	0.0061
819.645	-0
819.947	-0.0003
820.249	-0.0016
820.551	0.0024
820.853	0.0021
821.155	-0.0024
821.457	-0.0106
821.759	-0.0179
822.061	-0.0174
822.362	-0.0237
822.664	-0.0144
822.966	-0.0076
823.267	-0.0012
823.569	-0.0077
823.87	-0.0082
824.171	-0.0073
824.473	0.0031
824.774	-0.003
825.075	-0.0067
825.376	-0.0215
825.677	-0.0254
825.978	-0.0197
826.279	-0.0089
826.58	0.0009
826.881	-0.0075
827.181	-0.0092
827.482	-0.0086
827.783	-0.0013
828.083	-0.0085
828.384	-0.0117
828.684	-0.0152
828.985	-0.0075
829.285	-0.003
829.585	-0.0075
829.885	-0.0103
830.185	-0.013
830.486	0.0032
830.786	-0.0051
831.086	-0.0049
831.385	-0.0062
831.685	0.0058
831.985	-0.0078
832.285	-0.0167
832.585	-0.0163
832.884	-0.0132
833.184	-0.017
833.483	-0.0265
833.783	-0.023
834.082	-0.0173
834.381	-0.0133
834.681	-0.0113
834.98	-0.0202
835.279	-0.0143
835.578	-0.0085
835.877	0.0019
836.176	-0.0026
836.475	-0.0087
836.774	-0.014
837.072	-0.0066
837.371	-0.0064
837.67	-0.0006
837.968	-0.0034
838.267	0.0114
838.565	0.0085
838.864	0.0116
839.162	-0.0029
839.46	-0.0141
839.759	-0.0186
840.057	-0.021
840.355	-0.0154
840.653	-0.0158
840.951	-0.0056
841.249	0.0025
841.547	0.0008
841.845	-0.0117
842.142	-0.0229
842.44	-0.0281
842.738	-0.0249
843.035	-0.0164
843.333	-0.0095
843.63	-0.0194
843.928	-0.0247
844.225	-0.0247
844.522	-0.0131
844.82	0.0037
845.117	0.0099
845.414	0.0067
845.711	-0.012
846.008	-0.0244
846.305	-0.023
846.602	-0.0198
846.898	-0.012
847.195	-0.0098
847.492	-0.0105
847.788	-0.0081
848.085	-0.0058
848.382	-0.0016
848.678	-0.0196
848.974	-0.0099
849.271	0.0027
849.567	0.0181
849.863	0.0133
850.159	-0.0033
850.455	-0.0029
850.751	-0.0006
851.047	-0.0075
851.343	-0.0075
851.639	-0.0179
851.935	-0.0241
852.23	-0.0262
852.526	-0.017
852.822	0.0101
853.117	0.0144
853.413	0.0062
853.708	-0.0059
854.003	-0.006
854.299	-0.0071
854.594	-0.0039
854.889	-0.008
855.184	-0.0104
855.479	-0.0241
855.774	-0.0215
856.069	-0.0189
856.364	-0.0142
856.659	-0.0183
856.954	-0.0082
857.248	0.0041
857.543	0.0072
857.837	-0.0193
858.132	-0.028
858.426	-0.0295
858.721	-0.0131
859.015	-0.0074
859.309	-0.018
859.604	-0.0075
859.898	-0.0075
860.192	0.0183
860.486	0.0126
860.78	0.0159
861.074	0.0043
861.367	-0.0094
861.661	-0.0225
861.955	-0.0249
862.248	-0.0197
862.542	-0.0075
862.836	-0.0023
863.129	-0.0064
863.422	-0.0265
863.716	-0.0289
864.009	-0.0123
864.302	-0.0062
864.595	-0.0122
864.889	-0.0122
865.182	-0.0112
865.475	-0.0019
865.767	-0.0128
866.06	-0.0044
866.353	-0.0058
866.646	0.0031
866.938	-0.01
867.231	-0.0241
867.524	-0.028
867.816	-0.0374
868.109	-0.0357
868.401	-0.0426
868.693	-0.0132
868.985	-0.0026
869.278	0.0148
869.57	-0
869.862	0.0036
870.154	0.0006
870.446	0.0014
870.738	-0.0119
871.029	0.0154
871.321	0.0186
871.613	0.0361
871.904	0.0121
872.196	-0.0004
872.487	-0.0127
872.779	-0
873.07	0.0252
873.362	0.0236
873.653	0.0019
873.944	0.0002
874.235	0.0082
874.526	0.0191
874.817	0.035
875.108	0.027
875.399	0.0134
875.69	-0.0246
875.981	-0.0345
876.271	-0.0238
876.562	-0.0361
876.853	-0.0169
877.143	-0.0625
877.434	-0.0369
877.724	-0.0793
878.014	-0.055
878.305	-0.0502
878.595	-0.012
878.885	-0.0328
879.175	-0.0519
879.465	-0.0428
879.755	-0.0166
880.045	-0.0133
880.335	-0.0363
880.624	-0.045
880.914	-0.045
