Data from SC_080717_1a_Absorbance_10-38-45-446.txt Node
Date: Fri Aug 11 10:38:45 MDT 2017
User: Tank Lab
Spectrometer: FLMS01220
Trigger mode: 0
Integration Time (sec): 1.000000E-1
Scans to average: 10
Electric dark correction enabled: true
Nonlinearity correction enabled: false
Boxcar width: 1
XAxis mode: Wavelengths
Number of Pixels in Spectrum: 2048
>>>>>Begin Spectral Data<<<<<
179.47	0.4424
179.856	0.4424
180.241	1.8778
180.626	-0.0237
181.011	-0
181.396	-0.2452
181.781	-0.1484
182.166	0.1939
182.551	-0
182.936	0.1264
183.321	-0.4641
183.706	0.1746
184.091	0.0261
184.476	-0
184.86	0.6507
185.245	0.2396
185.63	-0
186.015	-0
186.399	-0
186.784	-0.4541
187.169	-0.5048
187.553	-0
187.938	-0
188.322	0.2791
188.707	0.1052
189.091	0.115
189.475	0.1135
189.86	0.1376
190.244	0.13
190.629	0.1432
191.013	0.1741
191.397	0.2314
191.781	0.316
192.165	0.3775
192.55	0.4088
192.934	0.4139
193.318	0.4447
193.702	0.4682
194.086	0.4794
194.47	0.474
194.854	0.4751
195.238	0.4816
195.622	0.4751
196.006	0.476
196.389	0.4651
196.773	0.4582
197.157	0.4496
197.541	0.4408
197.924	0.4529
198.308	0.4347
198.692	0.4296
199.075	0.3997
199.459	0.4013
199.843	0.3954
200.226	0.3921
200.61	0.3814
200.993	0.3714
201.376	0.362
201.76	0.3563
202.143	0.3488
202.527	0.3478
202.91	0.3415
203.293	0.3393
203.676	0.3378
204.059	0.3352
204.443	0.3235
204.826	0.3118
205.209	0.3089
205.592	0.3072
205.975	0.3059
206.358	0.295
206.741	0.2896
207.124	0.2841
207.507	0.2872
207.89	0.2874
208.273	0.287
208.655	0.2815
209.038	0.2771
209.421	0.2711
209.804	0.2659
210.186	0.2641
210.569	0.2632
210.951	0.2635
211.334	0.2617
211.717	0.2621
212.099	0.2583
212.482	0.2545
212.864	0.2516
213.246	0.2519
213.629	0.2501
214.011	0.2465
214.393	0.247
214.776	0.2457
215.158	0.2441
215.54	0.2404
215.922	0.2372
216.305	0.2351
216.687	0.2301
217.069	0.2266
217.451	0.2246
217.833	0.2242
218.215	0.2263
218.597	0.2217
218.979	0.2179
219.361	0.2141
219.742	0.2139
220.124	0.2129
220.506	0.2094
220.888	0.2079
221.27	0.2037
221.651	0.202
222.033	0.1992
222.415	0.1988
222.796	0.1975
223.178	0.1947
223.559	0.193
223.941	0.1891
224.322	0.1872
224.704	0.1835
225.085	0.1839
225.466	0.1828
225.848	0.1812
226.229	0.1757
226.61	0.173
226.992	0.1712
227.373	0.1697
227.754	0.1649
228.135	0.1634
228.516	0.1631
228.897	0.1633
229.278	0.1594
229.659	0.1585
230.04	0.1574
230.421	0.1571
230.802	0.1547
231.183	0.1533
231.564	0.1526
231.944	0.1494
232.325	0.1474
232.706	0.1462
233.087	0.1471
233.467	0.1447
233.848	0.1431
234.229	0.1405
234.609	0.1414
234.99	0.1396
235.37	0.1381
235.751	0.1367
236.131	0.136
236.511	0.1371
236.892	0.1346
237.272	0.1336
237.652	0.1321
238.033	0.13
238.413	0.1288
238.793	0.1288
239.173	0.1306
239.553	0.1293
239.933	0.1273
240.313	0.1275
240.694	0.1277
241.074	0.1267
241.453	0.1246
241.833	0.1231
242.213	0.1226
242.593	0.1226
242.973	0.122
243.353	0.1209
243.732	0.1201
244.112	0.1186
244.492	0.1165
244.872	0.1147
245.251	0.1158
245.631	0.1167
246.01	0.1158
246.39	0.1145
246.769	0.115
247.149	0.1155
247.528	0.1157
247.908	0.113
248.287	0.1128
248.666	0.1112
249.045	0.1126
249.425	0.1117
249.804	0.1124
250.183	0.1118
250.562	0.1118
250.941	0.1108
251.32	0.1112
251.699	0.1104
252.078	0.1094
252.457	0.1075
252.836	0.1063
253.215	0.1061
253.594	0.1057
253.973	0.1047
254.352	0.1043
254.731	0.1042
255.109	0.1043
255.488	0.1035
255.867	0.1015
256.245	0.102
256.624	0.1026
257.002	0.1034
257.381	0.1024
257.759	0.1006
258.138	0.1002
258.516	0.0998
258.895	0.0996
259.273	0.0992
259.651	0.0992
260.03	0.0985
260.408	0.0984
260.786	0.0986
261.164	0.0985
261.542	0.098
261.921	0.096
262.299	0.0957
262.677	0.0952
263.055	0.0943
263.433	0.0925
263.811	0.0924
264.188	0.0931
264.566	0.0947
264.944	0.0936
265.322	0.0932
265.7	0.0925
266.077	0.0922
266.455	0.0918
266.833	0.0912
267.21	0.0914
267.588	0.0907
267.966	0.0906
268.343	0.0902
268.721	0.0901
269.098	0.0902
269.475	0.0887
269.853	0.0873
270.23	0.0857
270.607	0.0877
270.985	0.0861
271.362	0.0855
271.739	0.083
272.116	0.0843
272.494	0.0856
272.871	0.0849
273.248	0.0831
273.625	0.0821
274.002	0.0822
274.379	0.083
274.756	0.0822
275.132	0.0824
275.509	0.0825
275.886	0.0813
276.263	0.0805
276.64	0.0802
277.016	0.0816
277.393	0.0817
277.77	0.0814
278.146	0.0807
278.523	0.0773
278.899	0.0768
279.276	0.0754
279.652	0.0773
280.029	0.0754
280.405	0.0739
280.782	0.0737
281.158	0.0732
281.534	0.0745
281.91	0.0737
282.287	0.0733
282.663	0.0723
283.039	0.0726
283.415	0.0736
283.791	0.0739
284.167	0.0729
284.543	0.0734
284.919	0.0712
285.295	0.0724
285.671	0.0697
286.047	0.071
286.423	0.0688
286.799	0.0701
287.174	0.0691
287.55	0.0701
287.926	0.0689
288.301	0.0695
288.677	0.0677
289.053	0.0664
289.428	0.0642
289.804	0.0643
290.179	0.0657
290.555	0.0668
290.93	0.0646
291.305	0.0628
291.681	0.062
292.056	0.0632
292.431	0.0652
292.806	0.0667
293.182	0.0678
293.557	0.0662
293.932	0.0632
294.307	0.0621
294.682	0.0613
295.057	0.0612
295.432	0.061
295.807	0.0597
296.182	0.0599
296.557	0.0587
296.932	0.0598
297.306	0.0609
297.681	0.0603
298.056	0.06
298.43	0.0567
298.805	0.0558
299.18	0.0547
299.554	0.0542
299.929	0.0546
300.303	0.0548
300.678	0.0549
301.052	0.055
301.427	0.0538
301.801	0.0551
302.175	0.0537
302.55	0.054
302.924	0.0535
303.298	0.0532
303.672	0.0511
304.046	0.0487
304.421	0.0487
304.795	0.0516
305.169	0.0521
305.543	0.0523
305.917	0.0505
306.291	0.0516
306.664	0.0508
307.038	0.0497
307.412	0.047
307.786	0.0473
308.16	0.0484
308.533	0.0508
308.907	0.0498
309.281	0.0492
309.654	0.0484
310.028	0.0478
310.401	0.047
310.775	0.0466
311.148	0.0479
311.522	0.0481
311.895	0.0479
312.268	0.0476
312.642	0.0474
313.015	0.047
313.388	0.046
313.761	0.0465
314.135	0.045
314.508	0.0449
314.881	0.0433
315.254	0.0432
315.627	0.0429
316	0.0445
316.373	0.0453
316.746	0.0446
317.118	0.0416
317.491	0.0396
317.864	0.0408
318.237	0.0424
318.61	0.0428
318.982	0.0422
319.355	0.0416
319.727	0.0403
320.1	0.0393
320.473	0.0377
320.845	0.0375
321.218	0.0365
321.59	0.0377
321.962	0.0388
322.335	0.0384
322.707	0.0375
323.079	0.0376
323.452	0.0382
323.824	0.0375
324.196	0.0367
324.568	0.0369
324.94	0.0373
325.312	0.0353
325.684	0.0345
326.056	0.0336
326.428	0.0358
326.8	0.0361
327.172	0.0368
327.544	0.0358
327.915	0.0333
328.287	0.0345
328.659	0.0347
329.031	0.0352
329.402	0.0339
329.774	0.0336
330.145	0.0338
330.517	0.034
330.888	0.0344
331.26	0.0351
331.631	0.0328
332.003	0.0312
332.374	0.0302
332.745	0.0305
333.117	0.031
333.488	0.0314
333.859	0.0333
334.23	0.0309
334.601	0.0315
334.972	0.0304
335.343	0.0313
335.714	0.0298
336.085	0.0281
336.456	0.0282
336.827	0.0266
337.198	0.0267
337.569	0.0262
337.94	0.0268
338.31	0.028
338.681	0.0279
339.052	0.0294
339.422	0.0274
339.793	0.027
340.164	0.0267
340.534	0.0294
340.905	0.0299
341.275	0.0269
341.645	0.0249
342.016	0.0246
342.386	0.0257
342.756	0.0258
343.127	0.0259
343.497	0.026
343.867	0.0238
344.237	0.0227
344.607	0.0229
344.977	0.0269
345.347	0.026
345.717	0.0261
346.087	0.0231
346.457	0.0243
346.827	0.0235
347.197	0.0241
347.567	0.0243
347.936	0.0233
348.306	0.023
348.676	0.0248
349.046	0.0253
349.415	0.0264
349.785	0.0237
350.154	0.0227
350.524	0.0214
350.893	0.021
351.263	0.0208
351.632	0.0205
352.001	0.0218
352.371	0.0228
352.74	0.0216
353.109	0.0207
353.478	0.021
353.847	0.0216
354.217	0.0222
354.586	0.021
354.955	0.0199
355.324	0.02
355.693	0.0203
356.062	0.0199
356.43	0.0189
356.799	0.0182
357.168	0.0182
357.537	0.0173
357.906	0.0164
358.274	0.0192
358.643	0.0209
359.011	0.0228
359.38	0.0192
359.749	0.0184
360.117	0.0182
360.486	0.0198
360.854	0.0196
361.222	0.0208
361.591	0.0185
361.959	0.0183
362.327	0.0157
362.695	0.0184
363.064	0.0197
363.432	0.0183
363.8	0.0159
364.168	0.0138
364.536	0.0148
364.904	0.017
365.272	0.0186
365.64	0.0186
366.008	0.017
366.376	0.0144
366.743	0.0157
367.111	0.014
367.479	0.015
367.847	0.0138
368.214	0.0151
368.582	0.0151
368.949	0.0132
369.317	0.0137
369.684	0.0154
370.052	0.0178
370.419	0.0167
370.787	0.0141
371.154	0.0146
371.521	0.0152
371.889	0.0155
372.256	0.0139
372.623	0.0136
372.99	0.0141
373.357	0.0135
373.724	0.0132
374.091	0.0141
374.458	0.0154
374.825	0.019
375.192	0.0167
375.559	0.016
375.926	0.0153
376.293	0.0145
376.659	0.015
377.026	0.0122
377.393	0.0148
377.759	0.0145
378.126	0.0167
378.492	0.0139
378.859	0.0145
379.225	0.0112
379.592	0.0123
379.958	0.0121
380.325	0.0117
380.691	0.0117
381.057	0.0108
381.423	0.012
381.79	0.0123
382.156	0.0111
382.522	0.0107
382.888	0.0109
383.254	0.0115
383.62	0.013
383.986	0.0119
384.352	0.0139
384.718	0.0136
385.084	0.0138
385.449	0.0129
385.815	0.0137
386.181	0.0155
386.547	0.0149
386.912	0.0145
387.278	0.013
387.643	0.012
388.009	0.0104
388.374	0.0093
388.74	0.0087
389.105	0.0092
389.471	0.0089
389.836	0.0099
390.201	0.0087
390.566	0.0093
390.932	0.0089
391.297	0.0103
391.662	0.0104
392.027	0.0109
392.392	0.011
392.757	0.0131
393.122	0.0123
393.487	0.0133
393.852	0.0132
394.217	0.0127
394.582	0.0106
394.946	0.0076
395.311	0.008
395.676	0.0076
396.04	0.0085
396.405	0.0083
396.77	0.0083
397.134	0.011
397.499	0.0109
397.863	0.0112
398.227	0.0092
398.592	0.0113
398.956	0.0102
399.32	0.0091
399.685	0.0071
400.049	0.0082
400.413	0.0077
400.777	0.0068
401.141	0.0054
401.505	0.0079
401.869	0.0106
402.233	0.0121
402.597	0.0106
402.961	0.01
403.325	0.0112
403.689	0.011
404.053	0.0072
404.416	0.0053
404.78	0.0047
405.144	0.0073
405.507	0.0065
405.871	0.007
406.234	0.0081
406.598	0.0085
406.961	0.0111
407.325	0.012
407.688	0.0118
408.051	0.0089
408.415	0.0064
408.778	0.0069
409.141	0.006
409.504	0.0064
409.867	0.0073
410.23	0.0076
410.593	0.009
410.956	0.0072
411.319	0.0071
411.682	0.0054
412.045	0.0056
412.408	0.0068
412.771	0.0077
413.134	0.0083
413.496	0.0077
413.859	0.0073
414.222	0.0061
414.584	0.0082
414.947	0.0075
415.309	0.0104
415.672	0.0077
416.034	0.0077
416.396	0.0047
416.759	0.0056
417.121	0.0074
417.483	0.0105
417.846	0.011
418.208	0.0089
418.57	0.0082
418.932	0.0083
419.294	0.0102
419.656	0.0069
420.018	0.0048
420.38	0.0038
420.742	0.0078
421.104	0.0077
421.466	0.0079
421.827	0.0064
422.189	0.0069
422.551	0.0047
422.912	0.0035
423.274	0.0009
423.636	0.002
423.997	0.0041
424.359	0.006
424.72	0.0086
425.081	0.0062
425.443	0.0065
425.804	0.0033
426.165	0.0026
426.527	0.0041
426.888	0.0051
427.249	0.0051
427.61	0.0025
427.971	0.0004
428.332	0.0012
428.693	0.0033
429.054	0.0037
429.415	0.0049
429.776	0.0048
430.137	0.0063
430.498	0.0043
430.858	0.0038
431.219	0.0021
431.58	0.0041
431.94	0.0057
432.301	0.006
432.661	0.0056
433.022	0.0048
433.382	0.0075
433.743	0.0083
434.103	0.0074
434.463	0.0066
434.824	0.0068
435.184	0.0061
435.544	0.0043
435.904	0.0028
436.264	0.0044
436.624	0.0061
436.985	0.0068
437.345	0.0069
437.704	0.0065
438.064	0.0053
438.424	0.003
438.784	0.003
439.144	0.0011
439.504	0.0008
439.863	0.0007
440.223	0.0024
440.583	0.0058
440.942	0.0049
441.302	0.003
441.661	0.0001
442.021	-0.0009
442.38	0.0018
442.739	0.0035
443.099	0.0055
443.458	0.0082
443.817	0.0115
444.176	0.0098
444.536	0.0062
444.895	0.0012
445.254	0.0033
445.613	0.003
445.972	0.002
446.331	0.0029
446.69	0.0051
447.049	0.0069
447.407	0.0045
447.766	0.0018
448.125	0.0005
448.484	0.0013
448.842	0.0028
449.201	0.0038
449.559	0.0032
449.918	0.0039
450.276	0.0033
450.635	0.0032
450.993	0.0017
451.352	0.0016
451.71	0.0009
452.068	0.0014
452.426	0.0025
452.785	0.0025
453.143	0.0012
453.501	-0.0017
453.859	-0.0001
454.217	0.0019
454.575	0.004
454.933	0.0042
455.291	0.0036
455.649	0.0059
456.006	0.0059
456.364	0.0069
456.722	0.0062
457.079	0.0073
457.437	0.0034
457.795	0.0024
458.152	-0.0011
458.51	0.001
458.867	0.0028
459.225	0.0068
459.582	0.0066
459.939	0.005
460.297	0.005
460.654	0.0061
461.011	0.0071
461.368	0.0028
461.725	0.0021
462.082	0.0002
462.44	0.0028
462.797	0.0024
463.153	0.005
463.51	0.0036
463.867	0.0024
464.224	0.0012
464.581	0.0028
464.938	0.0043
465.294	0.003
465.651	0.0007
466.008	-0.0003
466.364	0.0017
466.721	0.0003
467.077	0.0019
467.434	0.0004
467.79	0.0005
468.146	0.0016
468.503	0.0009
468.859	0.0025
469.215	0.0019
469.571	0.0027
469.927	0.0006
470.284	-0.0009
470.64	-0.0026
470.996	-0.0009
471.352	-0.0012
471.707	0.0002
472.063	0.0014
472.419	0.0034
472.775	0.005
473.131	0.0022
473.486	0.0029
473.842	0.0014
474.198	0.0048
474.553	0.0048
474.909	0.0073
475.264	0.0064
475.62	0.0054
475.975	0.0045
476.331	0.006
476.686	0.0025
477.041	0.0029
477.396	0.0009
477.752	0.0047
478.107	0.0051
478.462	0.0061
478.817	0.0046
479.172	0.0029
479.527	0.0012
479.882	0.0026
480.237	0.0016
480.591	-0.0004
480.946	-0.0011
481.301	0.0013
481.656	0.0019
482.01	0.0004
482.365	-0.0036
482.72	-0.0014
483.074	-0.0008
483.429	0.0016
483.783	0.0009
484.137	0.0006
484.492	-0.0007
484.846	0.0002
485.2	0.0025
485.555	0.0026
485.909	0.0012
486.263	0.0015
486.617	0.0008
486.971	0.003
487.325	0.0021
487.679	0.002
488.033	-0.0007
488.387	0.0002
488.741	0.0025
489.094	0.0035
489.448	0.0003
489.802	-0.0012
490.156	-0.0007
490.509	0.0007
490.863	0.0002
491.216	-0.0005
491.57	0
491.923	0.0014
492.277	0.0023
492.63	0.0012
492.983	-0.0009
493.337	-0.001
493.69	-0.0002
494.043	0.0019
494.396	-0.0002
494.749	0.0018
495.102	-0.0001
495.455	0.0007
495.808	0.0007
496.161	0.0028
496.514	0.0029
496.867	0.0008
497.22	0.0011
497.572	0.0013
497.925	0.0018
498.278	0.0012
498.63	0.0011
498.983	0.0024
499.335	0.0024
499.688	0.0022
500.04	0.0004
500.393	0.0005
500.745	0.0011
501.097	0.0008
501.449	0.0012
501.802	-0.0005
502.154	-0.0011
502.506	-0.0019
502.858	-0.0012
503.21	0.0008
503.562	0.0014
503.914	0.0044
504.266	0.003
504.618	0.0044
504.969	0.0013
505.321	0.0024
505.673	0.0016
506.025	0.0044
506.376	0.0049
506.728	0.0024
507.079	0.0001
507.431	-0.0004
507.782	0.0007
508.134	0.0019
508.485	0.002
508.836	-0.0006
509.188	-0.0003
509.539	-0.0021
509.89	-0.0015
510.241	-0.0024
510.592	-0.0037
510.943	-0.0033
511.294	-0.0032
511.645	0.0002
511.996	0.0038
512.347	0.0037
512.698	0.0009
513.049	-0.0033
513.399	-0.004
513.75	-0.0017
514.101	0.002
514.451	0.0051
514.802	0.0039
515.152	0.0021
515.503	0.0008
515.853	0.0015
516.203	0.0027
516.554	0.0027
516.904	0.0025
517.254	0.0028
517.604	0.0012
517.955	0.0013
518.305	0.0011
518.655	0.001
519.005	-0.0007
519.355	-0.0012
519.705	0.0015
520.055	0.0019
520.404	0.0003
520.754	-0.0016
521.104	-0.0042
521.454	-0.0023
521.803	-0.0022
522.153	0.0003
522.502	0.0003
522.852	0.0008
523.201	0.0011
523.551	-0
523.9	0.0003
524.249	-0.0001
524.599	0.0016
524.948	-0.0022
525.297	-0.0025
525.646	-0.0032
525.995	-0
526.344	0.0034
526.694	0.0029
527.042	0.0043
527.391	0.0011
527.74	0.0018
528.089	-0.0019
528.438	0.0002
528.787	0.0011
529.135	0.0036
529.484	0.0048
529.833	0.003
530.181	0.0019
530.53	-0.0015
530.878	-0.0028
531.227	-0.001
531.575	-0.0029
531.923	-0.0022
532.271	-0.0022
532.62	0.0007
532.968	0.0009
533.316	-0.0033
533.664	-0.0036
534.012	-0.0035
534.36	-0.003
534.708	-0.0021
535.056	0.0005
535.404	0.0048
535.752	0.0061
536.1	0.0039
536.447	0.0007
536.795	-0.0018
537.143	-0.0024
537.49	-0.0002
537.838	-0.0016
538.185	-0.0001
538.533	-0.0024
538.88	-0.0002
539.228	-0.0033
539.575	-0.0008
539.922	0.0002
540.269	0.0018
540.617	0.0013
540.964	0.0003
541.311	0.0011
541.658	-0.0029
542.005	-0.0028
542.352	-0.0047
542.699	-0.0019
543.045	-0.0038
543.392	-0.0026
543.739	-0.0018
544.086	-0.0015
544.432	-0.0008
544.779	-0.0018
545.126	-0.0017
545.472	-0.0022
545.819	-0.0034
546.165	-0.0038
546.512	-0.0056
546.858	-0.0071
547.204	-0.0066
547.55	-0.0046
547.897	-0.0023
548.243	-0.0015
548.589	-0.0063
548.935	-0.0045
549.281	-0.0054
549.627	-0.0019
549.973	-0.0013
550.319	0.0016
550.665	0.0026
551.01	0.0004
551.356	-0.0011
551.702	-0.0018
552.048	-0.0018
552.393	-0.0027
552.739	0.0005
553.084	-0.001
553.43	-0.0006
553.775	-0.0017
554.12	-0.0006
554.466	-0.0002
554.811	-0.0003
555.156	0.0001
555.502	0.0008
555.847	0.0009
556.192	0.0004
556.537	-0.0032
556.882	-0.0049
557.227	-0.004
557.572	-0.0014
557.917	0.0004
558.261	0.0003
558.606	0.0013
558.951	-0.0006
559.295	-0.0035
559.64	-0.0069
559.985	-0.0024
560.329	0.0012
560.674	0.0034
561.018	-0.0016
561.363	-0.0026
561.707	-0.0054
562.051	-0.0036
562.395	-0.0051
562.74	-0.0033
563.084	-0.0033
563.428	-0.0022
563.772	-0.002
564.116	-0.0033
564.46	-0.0027
564.804	-0.0018
565.148	-0.0009
565.492	-0.003
565.835	-0.0048
566.179	-0.0059
566.523	-0.0044
566.866	-0.0015
567.21	0.0014
567.554	0.0022
567.897	0.0022
568.24	0.0021
568.584	-0.002
568.927	-0.0042
569.271	-0.0071
569.614	-0.0001
569.957	0.002
570.3	0.0018
570.643	-0.002
570.986	-0.0079
571.329	-0.0059
571.672	-0.0067
572.015	-0.0048
572.358	-0.0068
572.701	-0.0034
573.044	-0.0014
573.387	0.0017
573.729	-0.0007
574.072	-0.0024
574.414	-0.0039
574.757	-0.0055
575.099	-0.0052
575.442	-0.0044
575.784	-0.0033
576.127	-0.0016
576.469	-0.003
576.811	-0.0022
577.153	-0.005
577.496	-0.0053
577.838	-0.0054
578.18	-0.0042
578.522	-0.0036
578.864	-0.0018
579.206	-0.0005
579.548	0.0002
579.889	0.0008
580.231	-0.0003
580.573	-0.0033
580.915	-0.0022
581.256	-0.0027
581.598	-0.0018
581.939	-0.0049
582.281	-0.0053
582.622	-0.0042
582.964	-0.0064
583.305	-0.0047
583.646	-0.0039
583.988	-0.0002
584.329	-0.0025
584.67	-0.0024
585.011	-0.0043
585.352	-0.004
585.693	-0.0038
586.034	-0.001
586.375	-0.0007
586.716	-0.003
587.057	-0.0033
587.398	-0.0015
587.738	-0.0005
588.079	-0.0014
588.42	-0.0037
588.76	-0.0058
589.101	-0.0073
589.441	-0.0052
589.782	-0.0021
590.122	-0.0021
590.463	-0.0021
590.803	-0.0052
591.143	-0.0079
591.483	-0.0106
591.823	-0.0071
592.164	-0.0026
592.504	0.0005
592.844	-0.002
593.184	-0.0043
593.523	-0.0063
593.863	-0.0042
594.203	-0.0007
594.543	-0.0017
594.883	-0.0037
595.222	-0.0028
595.562	-0.0034
595.901	-0.0025
596.241	-0.0035
596.58	-0.0028
596.92	-0.0031
597.259	-0.0031
597.599	-0.002
597.938	-0.0015
598.277	-0.0022
598.616	-0.0029
598.955	-0.0027
599.295	-0.0057
599.634	-0.0015
599.973	-0.0042
600.312	-0.003
600.65	-0.0045
600.989	-0.0011
601.328	0.0024
601.667	-0.0007
602.005	-0.0027
602.344	-0.0044
602.683	-0.0034
603.021	-0.0017
603.36	-0.0025
603.698	-0.0018
604.037	-0.0044
604.375	-0.0034
604.713	-0.0007
605.052	0.0008
605.39	0.0007
605.728	-0.0013
606.066	-0.0018
606.404	-0.0042
606.742	-0.0057
607.08	-0.0078
607.418	-0.0067
607.756	-0.005
608.094	-0.0034
608.431	-0.0038
608.769	-0.0056
609.107	-0.0029
609.444	-0.0036
609.782	-0.0027
610.12	-0.0062
610.457	-0.0051
610.794	-0.0056
611.132	-0.0032
611.469	-0.0037
611.806	-0.0036
612.144	-0.0062
612.481	-0.0053
612.818	-0.0063
613.155	-0.0058
613.492	-0.007
613.829	-0.0029
614.166	-0.0016
614.503	-0.0028
614.84	-0.0047
615.176	-0.0051
615.513	-0.0015
615.85	0.0008
616.187	0.0037
616.523	0.0037
616.86	0.0018
617.196	-0.0022
617.533	-0.0015
617.869	-0.0019
618.205	-0.0025
618.542	-0.0066
618.878	-0.0085
619.214	-0.0059
619.55	-0.0076
619.886	-0.0079
620.222	-0.0063
620.558	-0.0034
620.894	-0.0008
621.23	-0.0048
621.566	-0.0048
621.902	-0.0073
622.238	-0.0069
622.573	-0.0085
622.909	-0.0076
623.244	-0.0099
623.58	-0.0089
623.916	-0.0086
624.251	-0.0036
624.586	-0.0027
624.922	-0.0021
625.257	-0.0055
625.592	-0.0084
625.927	-0.0117
626.263	-0.0095
626.598	-0.0059
626.933	-0.0043
627.268	-0.0038
627.603	-0.0035
627.938	-0.0012
628.272	-0.002
628.607	-0.0039
628.942	-0.0081
629.277	-0.0062
629.611	-0.0012
629.946	0.0004
630.281	-0.0003
630.615	-0.0058
630.949	-0.0063
631.284	-0.0083
631.618	-0.0087
631.953	-0.0102
632.287	-0.0158
632.621	-0.0142
632.955	-0.0122
633.289	-0.0059
633.623	-0.0083
633.957	-0.0068
634.291	-0.0034
634.625	-0.002
634.959	-0.001
635.293	-0.0025
635.627	-0.0043
635.96	-0.0024
636.294	0.0009
636.627	0.0044
636.961	0.0009
637.294	-0.0032
637.628	-0.0042
637.961	-0.0115
638.295	-0.008
638.628	-0.006
638.961	0.0013
639.294	-0.0033
639.628	-0.0069
639.961	-0.0041
640.294	-0.0019
640.627	-0.0003
640.96	-0.0086
641.293	-0.013
641.625	-0.0097
641.958	-0.0035
642.291	-0.0031
642.624	-0.0077
642.956	-0.0126
643.289	-0.0084
643.621	-0.0103
643.954	-0.0115
644.286	-0.0182
644.619	-0.0152
644.951	-0.012
645.283	-0.0027
645.616	-0.0054
645.948	-0.0039
646.28	-0.0066
646.612	-0.0038
646.944	-0.0055
647.276	-0.0096
647.608	-0.0096
647.94	-0.0112
648.272	-0.0066
648.603	-0.0001
648.935	-0.0016
649.267	-0.0027
649.598	-0.0107
649.93	-0.0033
650.261	-0.005
650.593	-0.0024
650.924	-0.0069
651.256	-0.0054
651.587	-0.004
651.918	-0.0036
652.25	-0.0042
652.581	-0.006
652.912	-0.0079
653.243	-0.0083
653.574	-0.0069
653.905	-0.0057
654.236	-0.0042
654.567	-0.0029
654.897	-0.0026
655.228	-0.0009
655.559	0.0013
655.89	0.0015
656.22	-0.003
656.551	-0.0041
656.881	0
657.212	0.0043
657.542	0.0056
657.872	0.003
658.203	-0.0006
658.533	-0.0026
658.863	-0.0047
659.193	-0.0052
659.523	-0.0071
659.853	-0.0085
660.183	-0.009
660.513	-0.0112
660.843	-0.0107
661.173	-0.0086
661.503	-0.0114
661.833	-0.0109
662.162	-0.016
662.492	-0.0088
662.822	-0.0083
663.151	-0.0051
663.481	-0.0096
663.81	-0.008
664.139	-0.0071
664.469	-0.0057
664.798	-0.004
665.127	-0.0002
665.456	0.0031
665.785	0.0017
666.114	-0.0022
666.443	-0.0071
666.772	-0.0048
667.101	-0.001
667.43	-0.0028
667.759	-0.0054
668.088	-0.0078
668.416	-0.0097
668.745	-0.0115
669.074	-0.0151
669.402	-0.0097
669.731	-0.0051
670.059	-0.0039
670.388	-0.0056
670.716	-0.0112
671.044	-0.0076
671.372	-0.0051
671.701	-0.0022
672.029	-0.0081
672.357	-0.0081
672.685	-0.0062
673.013	-0.0032
673.341	-0.0046
673.669	-0.0032
673.996	-0.0008
674.324	-0.0009
674.652	-0.0009
674.98	-0.0014
675.307	0.0002
675.635	-0.0061
675.962	-0.0106
676.29	-0.0161
676.617	-0.0129
676.945	-0.0144
677.272	-0.0152
677.599	-0.0174
677.926	-0.0141
678.253	-0.0127
678.581	-0.0093
678.908	-0.0094
679.235	-0.0065
679.561	-0.0054
679.888	-0.0032
680.215	-0.0055
680.542	-0.0022
680.869	-0.0015
681.195	0.0009
681.522	-0.0022
681.849	0.0009
682.175	-0.0009
682.502	-0.0056
682.828	-0.0101
683.154	-0.0096
683.481	-0.0031
683.807	-0.004
684.133	-0.0034
684.459	-0.0062
684.785	-0.007
685.111	-0.0087
685.437	-0.0097
685.763	-0.012
686.089	-0.013
686.415	-0.0113
686.741	-0.0102
687.067	-0.0035
687.392	-0.0014
687.718	0.0031
688.043	-0.001
688.369	-0.0023
688.694	-0.0063
689.02	-0.0032
689.345	-0.0095
689.67	-0.0058
689.996	-0.0091
690.321	-0.0072
690.646	-0.0102
690.971	-0.0087
691.296	-0.0068
691.621	-0.002
691.946	-0.0049
692.271	-0.0025
692.596	-0.0097
692.921	-0.0086
693.245	-0.0117
693.57	-0.0094
693.895	-0.0084
694.219	-0.0074
694.544	-0.0056
694.868	-0.0079
695.193	-0.0086
695.517	-0.0107
695.841	-0.0096
696.166	-0.0071
696.49	-0.0061
696.814	-0.0052
697.138	-0.0074
697.462	-0.0032
697.786	-0.0076
698.11	-0.0039
698.434	-0.0065
698.758	-0.0041
699.081	-0.0041
699.405	-0.0062
699.729	-0.0038
700.052	-0.0063
700.376	-0.0031
700.7	-0.0013
701.023	-0.0028
701.346	-0.005
701.67	-0.0053
701.993	0.0015
702.316	-0.0013
702.639	-0.0078
702.963	-0.008
703.286	-0.0025
703.609	0.0018
703.932	-0.0036
704.255	-0.0047
704.578	-0.0055
704.9	-0.005
705.223	-0.0072
705.546	-0.0058
705.868	-0.0054
706.191	-0.0023
706.514	-0.0048
706.836	-0.0007
707.159	-0.0035
707.481	-0.0038
707.803	-0.006
708.126	-0.0073
708.448	-0.0039
708.77	-0.0056
709.092	-0.0054
709.414	-0.0011
709.736	-0.0036
710.058	-0.0013
710.38	-0.0067
710.702	-0.004
711.024	-0.005
711.345	-0.0018
711.667	-0.0017
711.989	-0.0036
712.31	-0.0069
712.632	-0.0081
712.953	-0.0107
713.275	-0.0115
713.596	-0.0137
713.917	-0.0082
714.239	-0.0043
714.56	-0.0007
714.881	-0.0017
715.202	-0.0036
715.523	-0.0033
715.844	-0.0025
716.165	-0.004
716.486	-0.0046
716.807	-0.0018
717.128	-0.0011
717.448	-0.0018
717.769	-0.0003
718.09	0.0003
718.41	0.0055
718.731	0.0024
719.051	-0.0006
719.372	-0.0047
719.692	-0.0105
720.012	-0.0095
720.332	-0.0097
720.653	-0.0123
720.973	-0.013
721.293	-0.0116
721.613	-0.0051
721.933	-0.0019
722.253	-0.0028
722.573	-0.0035
722.892	-0.0076
723.212	-0.0119
723.532	-0.0125
723.851	-0.0065
724.171	-0.0065
724.491	-0.0072
724.81	-0.0105
725.129	-0.0057
725.449	-0.0097
725.768	-0.0091
726.087	-0.0074
726.407	-0.0029
726.726	-0.0026
727.045	0
727.364	-0.0029
727.683	-0.0026
728.002	-0.0048
728.321	-0.0029
728.64	-0.006
728.958	-0.01
729.277	-0.0043
729.596	-0.0027
729.914	0.0001
730.233	-0.007
730.551	-0.0064
730.87	-0.0059
731.188	-0.0016
731.507	-0.0001
731.825	0.002
732.143	-0.0002
732.461	0.0001
732.779	-0.004
733.097	-0.0062
733.415	-0.0045
733.733	-0.0065
734.051	-0.0065
734.369	-0.006
734.687	-0.0076
735.005	-0.0075
735.322	-0.0139
735.64	-0.009
735.957	-0.0096
736.275	-0.0101
736.592	-0.0114
736.91	-0.0119
737.227	-0.0101
737.544	-0.0129
737.862	-0.013
738.179	-0.0112
738.496	-0.0063
738.813	-0.0062
739.13	-0.008
739.447	-0.0095
739.764	-0.0056
740.081	-0.0087
740.398	-0.0119
740.714	-0.0153
741.031	-0.0086
741.348	-0.0129
741.664	-0.0086
741.981	-0.0136
742.297	-0.0099
742.614	-0.0113
742.93	-0.0088
743.246	-0.0076
743.563	-0.0131
743.879	-0.0176
744.195	-0.0194
744.511	-0.0119
744.827	-0.0043
745.143	-0.0039
745.459	-0.0067
745.775	-0.0078
746.091	-0.0079
746.406	-0.0099
746.722	-0.0105
747.038	-0.0086
747.353	-0.0031
747.669	-0.0019
747.984	0.0017
748.3	0.0008
748.615	-0.0001
748.93	-0.0038
749.246	-0.0037
749.561	-0.0105
749.876	-0.0021
750.191	0.0008
750.506	0.0031
750.821	-0.0067
751.136	-0.011
751.451	-0.0043
751.766	-0.0028
752.08	-0.0055
752.395	-0.0109
752.71	-0.0098
753.024	-0.0109
753.339	-0.0103
753.653	-0.0127
753.968	-0.013
754.282	-0.0064
754.596	-0.0031
754.911	-0.0059
755.225	-0.0133
755.539	-0.0085
755.853	0.0018
756.167	0.0041
756.481	-0.0035
756.795	-0.0074
757.109	-0.011
757.423	-0.0091
757.736	-0.0108
758.05	-0.0096
758.364	-0.0085
758.677	-0.0056
758.991	-0.0021
759.304	-0.0056
759.618	-0.0097
759.931	-0.0093
760.244	-0.0067
760.558	-0.0058
760.871	-0.0035
761.184	-0.0021
761.497	-0.0003
761.81	-0.0065
762.123	-0.0102
762.436	-0.0122
762.749	-0.0099
763.062	-0.0091
763.374	-0.0066
763.687	-0.005
764	-0.0061
764.312	-0.0008
764.625	-0.0049
764.937	-0.005
765.25	-0.0118
765.562	-0.0072
765.874	-0.0093
766.186	-0.0077
766.499	-0.0136
766.811	-0.0113
767.123	-0.0149
767.435	-0.0131
767.747	-0.0118
768.059	-0.0095
768.37	-0.0088
768.682	-0.013
768.994	-0.0142
769.306	-0.0104
769.617	-0.0027
769.929	-0.0034
770.24	-0.0072
770.552	-0.0108
770.863	-0.0109
771.174	-0.0111
771.486	-0.0102
771.797	-0.0074
772.108	-0.0093
772.419	-0.0107
772.73	-0.0101
773.041	-0.0064
773.352	-0.0052
773.663	-0.0062
773.974	-0.0038
774.285	-0.0057
774.595	-0.0008
774.906	-0.0067
775.217	-0.0065
775.527	-0.0142
775.838	-0.0117
776.148	-0.011
776.458	-0.0078
776.769	-0.0061
777.079	-0.0073
777.389	-0.0077
777.699	-0.0025
778.009	-0.0006
778.319	0.0009
778.629	-0.0082
778.939	-0.0095
779.249	-0.0082
779.559	-0.0056
779.869	-0.0022
780.178	-0.0044
780.488	-0.0041
780.798	-0.0085
781.107	-0.0113
781.417	-0.008
781.726	-0.0039
782.035	0.0008
782.345	-0.0003
782.654	-0.006
782.963	-0.0082
783.272	-0.0075
783.581	-0.0054
783.89	-0.0051
784.199	-0.0045
784.508	-0.0063
784.817	-0.0063
785.126	-0.0091
785.434	-0.009
785.743	-0.0053
786.052	-0.0058
786.36	-0.0032
786.669	-0.0121
786.977	-0.0143
787.285	-0.0109
787.594	-0.0036
787.902	-0.0004
788.21	-0.005
788.518	-0.0073
788.826	-0.0054
789.135	-0.0073
789.442	-0.0159
789.75	-0.0252
790.058	-0.0214
790.366	-0.0147
790.674	-0.0089
790.981	-0.0099
791.289	-0.0064
791.597	-0.0025
791.904	0.002
792.212	-0.0017
792.519	-0.0062
792.826	-0.0075
793.134	-0.0086
793.441	-0.0055
793.748	-0.005
794.055	-0.006
794.362	-0.0086
794.669	-0.0089
794.976	-0.0062
795.283	-0.0083
795.59	-0.0056
795.897	-0.0021
796.203	-0.0008
796.51	-0.0023
796.817	-0.0066
797.123	-0.0047
797.43	-0.0069
797.736	-0.0034
798.042	-0.0111
798.349	-0.0116
798.655	-0.0126
798.961	-0.0052
799.267	-0.0007
799.573	-0.0043
799.879	-0.006
800.185	-0.0118
800.491	-0.0038
800.797	0.0028
801.103	0.01
801.408	0.0036
801.714	-0.0043
802.02	-0.0113
802.325	-0.0099
802.631	-0.0065
802.936	-0.0032
803.242	-0.0016
803.547	0.0005
803.852	0.0032
804.157	0.001
804.462	-0.0049
804.768	-0.0088
805.073	-0.0174
805.378	-0.0141
805.682	-0.0119
805.987	-0.0074
806.292	-0.0004
806.597	0.0003
806.902	0.0096
807.206	-0.002
807.511	0.0036
807.815	-0.0075
808.12	-0.0005
808.424	-0.0059
808.728	-0.0013
809.033	-0.0053
809.337	-0.0027
809.641	0.0017
809.945	0.0025
810.249	0.0035
810.553	0.0006
810.857	-0.004
811.161	-0.0134
811.465	-0.0143
811.768	-0.0017
812.072	0.0048
812.376	0.0033
812.679	0.0021
812.983	-0.0008
813.286	0.0001
813.59	-0.0082
813.893	-0.0071
814.196	-0.0091
814.499	-0.0165
814.803	-0.022
815.106	-0.0221
815.409	-0.019
815.712	-0.0168
816.015	-0.0137
816.318	-0.0075
816.62	-0.0062
816.923	-0.0042
817.226	0.0044
817.528	-0.0005
817.831	-0.0021
818.133	-0.0104
818.436	0.0034
818.738	0.0056
819.041	0.0001
819.343	-0.0116
819.645	-0.0205
819.947	-0.0148
820.249	-0.0144
820.551	-0.0048
820.853	-0.0021
821.155	-0.0017
821.457	-0.0095
821.759	-0.0193
822.061	-0.021
822.362	-0.0237
822.664	-0.0111
822.966	-0.0032
823.267	-0.0001
823.569	-0.0088
823.87	-0.0114
824.171	-0.0097
824.473	0.0024
824.774	0.0009
825.075	-0.0028
825.376	-0.0086
825.677	-0.0105
825.978	-0.0086
826.279	-0.0144
826.58	-0.0025
826.881	-0.0076
827.181	-0.0028
827.482	-0.0096
827.783	-0.0014
828.083	-0.0008
828.384	-0.0066
828.684	-0.009
828.985	-0.0145
829.285	-0.0028
829.585	-0.0045
829.885	-0.0029
830.185	-0.0003
830.486	0.0039
830.786	0.0052
831.086	-0.0069
831.385	-0.0112
831.685	-0.0124
831.985	-0.0208
832.285	-0.0198
832.585	-0.0221
832.884	-0.0119
833.184	-0.0096
833.483	-0.0062
833.783	0.0037
834.082	0.0078
834.381	0.0074
834.681	0.0023
834.98	-0.0087
835.279	-0.0052
835.578	-0.0159
835.877	-0.0141
836.176	-0.0208
836.475	-0.0148
836.774	-0.0151
837.072	-0.0114
837.371	-0.0083
837.67	-0.0097
837.968	-0.0079
838.267	-0.0036
838.565	0.0115
838.864	0.0131
839.162	0.0056
839.46	-0.0106
839.759	0.0022
840.057	0.0012
840.355	0.0113
840.653	0.0004
840.951	0.0087
841.249	0.0056
841.547	-0.0113
841.845	-0.0205
842.142	-0.0244
842.44	-0.0194
842.738	-0.0226
843.035	-0.0218
843.333	-0.0143
843.63	-0.0184
843.928	-0.0129
844.225	-0.0091
844.522	0.0058
844.82	0.0102
845.117	0.0203
845.414	0.0113
845.711	0.0076
846.008	0.0011
846.305	0.0041
846.602	-0.0022
846.898	-0.0134
847.195	-0.0217
847.492	-0.0215
847.788	-0.0098
848.085	-0.0022
848.382	0.0007
848.678	-0.0266
848.974	-0.0127
849.271	-0.003
849.567	0.0142
849.863	0.0107
850.159	0.0006
850.455	-0.0114
850.751	-0.0168
851.047	-0.035
851.343	-0.0175
851.639	-0.0175
851.935	-0.0065
852.23	-0.008
852.526	-0.0099
852.822	0.0048
853.117	0.0081
853.413	0.0178
853.708	0.0145
854.003	0.0151
854.299	-0.0011
854.594	-0.0154
854.889	-0.0262
855.184	-0.0179
855.479	-0.0207
855.774	-0.0177
856.069	-0.0364
856.364	-0.0227
856.659	-0.0203
856.954	0.003
857.248	0
857.543	0.0031
857.837	-0.0104
858.132	-0.0013
858.426	-0.0113
858.721	-0.0082
859.015	-0.0205
859.309	-0.0154
859.604	-0.0097
859.898	0.0044
860.192	0.0075
860.486	0.0019
860.78	0.0075
861.074	0.0068
861.367	-0.0044
861.661	-0.0101
861.955	-0.0189
862.248	0.0015
862.542	-0.0069
862.836	0.0052
863.129	-0.0011
863.422	0.0034
863.716	-0.006
864.009	-0.0072
864.302	-0.022
864.595	-0.0218
864.889	-0.0164
865.182	-0.0226
865.475	-0.0324
865.767	-0.0345
866.06	-0.0124
866.353	0.0099
866.646	0.0171
866.938	0.0104
867.231	-0.0027
867.524	0.0003
867.816	-0.0114
868.109	0.0004
868.401	-0.0215
868.693	0.0054
868.985	-0.0019
869.278	0.0178
869.57	0.0026
869.862	-0.0007
870.154	-0.002
870.446	-0.01
870.738	-0.016
871.029	-0.0139
871.321	0.005
871.613	0.028
871.904	0.0151
872.196	-0.0182
872.487	-0.0416
872.779	-0.0382
873.07	-0.0236
873.362	-0.0294
873.653	-0.038
873.944	-0.0155
874.235	-0.0012
874.526	0.0194
874.817	0.0275
875.108	0.0276
875.399	0.0212
875.69	-0.0048
875.981	-0.0125
876.271	0.0088
876.562	-0.0028
876.853	0.0125
877.143	-0.0177
877.434	-0.0129
877.724	-0.0399
878.014	-0.0339
878.305	-0.0199
878.595	-0.0085
878.885	-0.0465
879.175	-0.0338
879.465	-0.0172
879.755	0.0032
880.045	-0.0074
880.335	-0.0168
880.624	-0.0057
880.914	-0.0057
