Data from SC_080717-2_1b_Absorbance_11-06-58-073.txt Node
Date: Fri Aug 11 11:06:58 MDT 2017
User: Tank Lab
Spectrometer: FLMS01220
Trigger mode: 0
Integration Time (sec): 1.000000E-1
Scans to average: 10
Electric dark correction enabled: true
Nonlinearity correction enabled: false
Boxcar width: 1
XAxis mode: Wavelengths
Number of Pixels in Spectrum: 2048
>>>>>Begin Spectral Data<<<<<
179.47	0.437
179.856	0.437
180.241	1.6225
180.626	-0
181.011	-0
181.396	-0.1692
181.781	-0.3259
182.166	-0
182.551	-0.3735
182.936	-0.1237
183.321	-0
183.706	0.0104
184.091	0.6476
184.476	-0.2551
184.86	0.3143
185.245	0.7355
185.63	1.4472
186.015	0.9775
186.399	-0
186.784	-0.3658
187.169	0.0395
187.553	1.0869
187.938	0.2398
188.322	0.1147
188.707	0.0487
189.091	0.0599
189.475	0.0894
189.86	0.1298
190.244	0.1688
190.629	0.1577
191.013	0.217
191.397	0.2489
191.781	0.3288
192.165	0.3719
192.55	0.4125
192.934	0.4606
193.318	0.462
193.702	0.4941
194.086	0.4653
194.47	0.4689
194.854	0.45
195.238	0.4609
195.622	0.468
196.006	0.4622
196.389	0.4645
196.773	0.446
197.157	0.4423
197.541	0.4357
197.924	0.4357
198.308	0.4265
198.692	0.4173
199.075	0.3937
199.459	0.3823
199.843	0.3689
200.226	0.3703
200.61	0.3681
200.993	0.36
201.376	0.3519
201.76	0.3504
202.143	0.3502
202.527	0.3451
202.91	0.3336
203.293	0.3232
203.676	0.3196
204.059	0.315
204.443	0.3139
204.826	0.3096
205.209	0.3052
205.592	0.2988
205.975	0.2977
206.358	0.2899
206.741	0.2891
207.124	0.2867
207.507	0.2894
207.89	0.2884
208.273	0.2822
208.655	0.2812
209.038	0.2748
209.421	0.2728
209.804	0.266
210.186	0.2661
210.569	0.263
210.951	0.2631
211.334	0.2584
211.717	0.259
212.099	0.2573
212.482	0.257
212.864	0.2561
213.246	0.2533
213.629	0.2514
214.011	0.2478
214.393	0.246
214.776	0.245
215.158	0.2435
215.54	0.242
215.922	0.2405
216.305	0.2371
216.687	0.2349
217.069	0.2287
217.451	0.2282
217.833	0.2266
218.215	0.2264
218.597	0.2198
218.979	0.2175
219.361	0.2148
219.742	0.2133
220.124	0.2085
220.506	0.2041
220.888	0.2032
221.27	0.2037
221.651	0.2031
222.033	0.2023
222.415	0.1994
222.796	0.198
223.178	0.1958
223.559	0.1954
223.941	0.1913
224.322	0.1885
224.704	0.184
225.085	0.1855
225.466	0.1822
225.848	0.1788
226.229	0.1743
226.61	0.1728
226.992	0.1706
227.373	0.1675
227.754	0.1644
228.135	0.1633
228.516	0.1622
228.897	0.1628
229.278	0.1609
229.659	0.1603
230.04	0.1577
230.421	0.1563
230.802	0.1546
231.183	0.1536
231.564	0.1524
231.944	0.1508
232.325	0.148
232.706	0.1472
233.087	0.1468
233.467	0.1455
233.848	0.1449
234.229	0.1417
234.609	0.1414
234.99	0.1386
235.37	0.1389
235.751	0.1386
236.131	0.1385
236.511	0.1368
236.892	0.1355
237.272	0.1349
237.652	0.1346
238.033	0.1311
238.413	0.1285
238.793	0.1284
239.173	0.1294
239.553	0.1288
239.933	0.1272
240.313	0.1267
240.694	0.127
241.074	0.1246
241.453	0.1241
241.833	0.1224
242.213	0.1224
242.593	0.1217
242.973	0.1215
243.353	0.1213
243.732	0.1204
244.112	0.1192
244.492	0.1167
244.872	0.1166
245.251	0.1161
245.631	0.1169
246.01	0.115
246.39	0.1145
246.769	0.1145
247.149	0.1134
247.528	0.1122
247.908	0.111
248.287	0.1108
248.666	0.1123
249.045	0.1117
249.425	0.112
249.804	0.1103
250.183	0.1103
250.562	0.1102
250.941	0.1092
251.32	0.1101
251.699	0.1096
252.078	0.1094
252.457	0.1066
252.836	0.1054
253.215	0.1049
253.594	0.1045
253.973	0.1038
254.352	0.1042
254.731	0.1043
255.109	0.1036
255.488	0.1023
255.867	0.1013
256.245	0.1014
256.624	0.1023
257.002	0.1027
257.381	0.1023
257.759	0.1008
258.138	0.1011
258.516	0.1012
258.895	0.1016
259.273	0.1006
259.651	0.1
260.03	0.0974
260.408	0.0973
260.786	0.0961
261.164	0.0974
261.542	0.0972
261.921	0.0969
262.299	0.0951
262.677	0.0939
263.055	0.0927
263.433	0.0933
263.811	0.0936
264.188	0.0951
264.566	0.0937
264.944	0.0921
265.322	0.0906
265.7	0.0922
266.077	0.0919
266.455	0.0925
266.833	0.091
267.21	0.091
267.588	0.0887
267.966	0.0898
268.343	0.0892
268.721	0.0903
269.098	0.0886
269.475	0.0892
269.853	0.0875
270.23	0.0869
270.607	0.0877
270.985	0.0862
271.362	0.0849
271.739	0.0823
272.116	0.0833
272.494	0.0856
272.871	0.0845
273.248	0.0834
273.625	0.0817
274.002	0.0813
274.379	0.0818
274.756	0.0802
275.132	0.0806
275.509	0.0811
275.886	0.0819
276.263	0.0808
276.64	0.0803
277.016	0.079
277.393	0.0785
277.77	0.0778
278.146	0.0781
278.523	0.0773
278.899	0.0771
279.276	0.0764
279.652	0.0776
280.029	0.0769
280.405	0.0762
280.782	0.0761
281.158	0.0761
281.534	0.0773
281.91	0.0759
282.287	0.0754
282.663	0.0731
283.039	0.073
283.415	0.0711
283.791	0.072
284.167	0.0709
284.543	0.0716
284.919	0.0709
285.295	0.0702
285.671	0.0683
286.047	0.0667
286.423	0.068
286.799	0.069
287.174	0.0692
287.55	0.0697
287.926	0.0685
288.301	0.0675
288.677	0.0659
289.053	0.0659
289.428	0.0656
289.804	0.065
290.179	0.065
290.555	0.065
290.93	0.065
291.305	0.0638
291.681	0.064
292.056	0.0631
292.431	0.0637
292.806	0.0639
293.182	0.0636
293.557	0.0638
293.932	0.0633
294.307	0.063
294.682	0.0608
295.057	0.0594
295.432	0.0593
295.807	0.0591
296.182	0.0594
296.557	0.0588
296.932	0.0604
297.306	0.0608
297.681	0.0607
298.056	0.0589
298.43	0.056
298.805	0.0551
299.18	0.0538
299.554	0.0542
299.929	0.0543
300.303	0.056
300.678	0.0559
301.052	0.0564
301.427	0.0548
301.801	0.0542
302.175	0.0513
302.55	0.0514
302.924	0.0523
303.298	0.0524
303.672	0.0505
304.046	0.0499
304.421	0.0514
304.795	0.0533
305.169	0.052
305.543	0.0514
305.917	0.0495
306.291	0.0498
306.664	0.0487
307.038	0.0481
307.412	0.0477
307.786	0.0491
308.16	0.0505
308.533	0.0503
308.907	0.05
309.281	0.0496
309.654	0.0496
310.028	0.0479
310.401	0.0472
310.775	0.0459
311.148	0.0479
311.522	0.0466
311.895	0.0469
312.268	0.0449
312.642	0.0458
313.015	0.0463
313.388	0.0468
313.761	0.0464
314.135	0.0452
314.508	0.0443
314.881	0.0435
315.254	0.0439
315.627	0.0425
316	0.0435
316.373	0.0432
316.746	0.0433
317.118	0.0419
317.491	0.0399
317.864	0.0407
318.237	0.0404
318.61	0.0414
318.982	0.0398
319.355	0.0392
319.727	0.0373
320.1	0.0381
320.473	0.0372
320.845	0.0364
321.218	0.0362
321.59	0.0361
321.962	0.0367
322.335	0.0343
322.707	0.0344
323.079	0.0367
323.452	0.0385
323.824	0.0376
324.196	0.0371
324.568	0.0364
324.94	0.0371
325.312	0.0344
325.684	0.0342
326.056	0.0338
326.428	0.035
326.8	0.0351
327.172	0.0355
327.544	0.0359
327.915	0.0335
328.287	0.0339
328.659	0.0314
329.031	0.0325
329.402	0.0317
329.774	0.0344
330.145	0.0342
330.517	0.0339
330.888	0.0335
331.26	0.0346
331.631	0.0343
332.003	0.0327
332.374	0.0304
332.745	0.0313
333.117	0.0295
333.488	0.0296
333.859	0.0303
334.23	0.0311
334.601	0.0318
334.972	0.028
335.343	0.0269
335.714	0.0257
336.085	0.0267
336.456	0.0271
336.827	0.0264
337.198	0.0259
337.569	0.0254
337.94	0.0273
338.31	0.0273
338.681	0.0279
339.052	0.0272
339.422	0.0278
339.793	0.0281
340.164	0.0271
340.534	0.0279
340.905	0.0273
341.275	0.0258
341.645	0.0237
342.016	0.024
342.386	0.0256
342.756	0.0267
343.127	0.0258
343.497	0.0258
343.867	0.0232
344.237	0.0219
344.607	0.0204
344.977	0.0219
345.347	0.0227
345.717	0.0259
346.087	0.0249
346.457	0.0251
346.827	0.0209
347.197	0.0219
347.567	0.0198
347.936	0.0226
348.306	0.0218
348.676	0.025
349.046	0.0226
349.415	0.025
349.785	0.0227
350.154	0.0231
350.524	0.0209
350.893	0.0215
351.263	0.0201
351.632	0.0194
352.001	0.0195
352.371	0.0215
352.74	0.0205
353.109	0.0185
353.478	0.0177
353.847	0.0177
354.217	0.018
354.586	0.0169
354.955	0.0167
355.324	0.0183
355.693	0.0191
356.062	0.0187
356.43	0.0185
356.799	0.018
357.168	0.018
357.537	0.0164
357.906	0.0171
358.274	0.0197
358.643	0.0211
359.011	0.0214
359.38	0.019
359.749	0.0185
360.117	0.0178
360.486	0.0181
360.854	0.017
361.222	0.0167
361.591	0.0151
361.959	0.0157
362.327	0.0148
362.695	0.0175
363.064	0.0184
363.432	0.0187
363.8	0.0159
364.168	0.0151
364.536	0.0143
364.904	0.0147
365.272	0.013
365.64	0.0132
366.008	0.0135
366.376	0.0147
366.743	0.0166
367.111	0.0162
367.479	0.0153
367.847	0.0119
368.214	0.0141
368.582	0.0148
368.949	0.0165
369.317	0.0142
369.684	0.014
370.052	0.0134
370.419	0.0139
370.787	0.0139
371.154	0.0152
371.521	0.0166
371.889	0.0154
372.256	0.0127
372.623	0.0115
372.99	0.0116
373.357	0.0127
373.724	0.0109
374.091	0.0112
374.458	0.0119
374.825	0.013
375.192	0.0121
375.559	0.0112
375.926	0.0118
376.293	0.0113
376.659	0.0146
377.026	0.0158
377.393	0.0187
377.759	0.0157
378.126	0.014
378.492	0.0122
378.859	0.0114
379.225	0.0116
379.592	0.0109
379.958	0.0114
380.325	0.0107
380.691	0.0122
381.057	0.0131
381.423	0.0137
381.79	0.0129
382.156	0.0114
382.522	0.0108
382.888	0.0097
383.254	0.0093
383.62	0.0095
383.986	0.0105
384.352	0.0121
384.718	0.0123
385.084	0.0143
385.449	0.0149
385.815	0.0148
386.181	0.013
386.547	0.0126
386.912	0.013
387.278	0.0135
387.643	0.0121
388.009	0.0098
388.374	0.008
388.74	0.0087
389.105	0.0107
389.471	0.0114
389.836	0.0108
390.201	0.0087
390.566	0.0077
390.932	0.0053
391.297	0.0058
391.662	0.0076
392.027	0.011
392.392	0.0111
392.757	0.0113
393.122	0.0098
393.487	0.0114
393.852	0.0095
394.217	0.0083
394.582	0.0058
394.946	0.0055
395.311	0.0064
395.676	0.0059
396.04	0.0047
396.405	0.0054
396.77	0.0062
397.134	0.0101
397.499	0.0099
397.863	0.0091
398.227	0.0066
398.592	0.0053
398.956	0.004
399.32	0.0057
399.685	0.0072
400.049	0.0109
400.413	0.008
400.777	0.0064
401.141	0.0045
401.505	0.0071
401.869	0.0075
402.233	0.0093
402.597	0.008
402.961	0.0074
403.325	0.0072
403.689	0.0068
404.053	0.0067
404.416	0.0049
404.78	0.0049
405.144	0.0029
405.507	0.0035
405.871	0.0042
406.234	0.0066
406.598	0.0069
406.961	0.0078
407.325	0.0076
407.688	0.0057
408.051	0.0054
408.415	0.0057
408.778	0.0058
409.141	0.0046
409.504	0.0038
409.867	0.0052
410.23	0.0049
410.593	0.0065
410.956	0.0068
411.319	0.0067
411.682	0.006
412.045	0.0054
412.408	0.0064
412.771	0.0055
413.134	0.0056
413.496	0.0048
413.859	0.006
414.222	0.0067
414.584	0.0066
414.947	0.0042
415.309	0.0031
415.672	0.0033
416.034	0.0056
416.396	0.0038
416.759	0.0033
417.121	0.0038
417.483	0.006
417.846	0.0066
418.208	0.0069
418.57	0.0064
418.932	0.0076
419.294	0.0062
419.656	0.0065
420.018	0.0061
420.38	0.0055
420.742	0.0067
421.104	0.0045
421.466	0.0056
421.827	0.0051
422.189	0.0068
422.551	0.0043
422.912	0.0019
423.274	-0.0012
423.636	0.001
423.997	0.0043
424.359	0.0056
424.72	0.005
425.081	0.0022
425.443	0.0016
425.804	0.0012
426.165	-0.0017
426.527	0.0012
426.888	0.0016
427.249	0.0018
427.61	-0.0002
427.971	0.0012
428.332	0.0039
428.693	0.0057
429.054	0.0043
429.415	0.0056
429.776	0.0038
430.137	0.0047
430.498	0.0022
430.858	0.0015
431.219	0.0003
431.58	0.003
431.94	0.003
432.301	0.0002
432.661	-0.0002
433.022	0.0013
433.382	0.0035
433.743	0.0028
434.103	0.0018
434.463	0.0022
434.824	0.0035
435.184	0.0031
435.544	0.005
435.904	0.0027
436.264	0.003
436.624	0.0007
436.985	0.0029
437.345	0.0056
437.704	0.0055
438.064	0.0045
438.424	0.0006
438.784	0.0012
439.144	0.0002
439.504	0.0004
439.863	-0.0008
440.223	0.0012
440.583	0.0056
440.942	0.0067
441.302	0.0046
441.661	0.0003
442.021	0.0014
442.38	0.0021
442.739	0.0033
443.099	-0.0008
443.458	0.0013
443.817	0.0038
444.176	0.0061
444.536	0.0027
444.895	-0.0017
445.254	-0.0017
445.613	0.0003
445.972	0.0018
446.331	0.0026
446.69	0.0015
447.049	0.0054
447.407	0.005
447.766	0.0047
448.125	0.0019
448.484	0.0023
448.842	0.0024
449.201	-0
449.559	0.0008
449.918	0.0004
450.276	0.001
450.635	0.0003
450.993	0.0001
451.352	0.0011
451.71	0.0011
452.068	0.0035
452.426	0.0017
452.785	0.0005
453.143	-0.0022
453.501	-0.002
453.859	-0.002
454.217	-0.0011
454.575	0.0007
454.933	0.0001
455.291	0.0003
455.649	0.0016
456.006	0.0029
456.364	0.0026
456.722	0.0025
457.079	0.0024
457.437	-0.0005
457.795	-0.0036
458.152	-0.0044
458.51	-0.0008
458.867	-0
459.225	0.0015
459.582	0.0014
459.939	0.001
460.297	0.0015
460.654	0.0008
461.011	0.0021
461.368	-0.0008
461.725	-0.0014
462.082	-0.0028
462.44	-0.0004
462.797	0.0002
463.153	0.0014
463.51	-0.0003
463.867	-0.0003
464.224	0.0016
464.581	0.0024
464.938	0.003
465.294	0.0009
465.651	0.0002
466.008	-0.0018
466.364	-0.0024
466.721	-0.002
467.077	0.0003
467.434	-0.0001
467.79	-0.0001
468.146	-0.0016
468.503	0.0001
468.859	-0.0006
469.215	0.0002
469.571	-0.0002
469.927	-0.0026
470.284	-0.0028
470.64	-0.0025
470.996	0.0003
471.352	0.001
471.707	-0.0001
472.063	-0.0003
472.419	0.0023
472.775	0.0041
473.131	0.0036
473.486	0.0026
473.842	0.0004
474.198	0.003
474.553	0.0001
474.909	0.0042
475.264	0.0019
475.62	0.001
475.975	0.0011
476.331	0.0038
476.686	0.0032
477.041	0.001
477.396	-0.0015
477.752	0.0011
478.107	0.0007
478.462	0.0036
478.817	0.0031
479.172	0.0039
479.527	0.0023
479.882	0.0034
480.237	0.001
480.591	-0.0027
480.946	-0.0019
481.301	0.0002
481.656	0.0025
482.01	-0.0005
482.365	-0.0041
482.72	-0.005
483.074	-0.0035
483.429	-0.0005
483.783	-0.0006
484.137	-0.0008
484.492	-0.0014
484.846	-0
485.2	0.0011
485.555	-0.0001
485.909	0.0013
486.263	0.0014
486.617	0.0018
486.971	0.0012
487.325	0.0006
487.679	0.0005
488.033	-0.0011
488.387	0.0001
488.741	0.0015
489.094	0.0007
489.448	-0.0009
489.802	-0.0017
490.156	0.0009
490.509	-0.0004
490.863	-0
491.216	0.0005
491.57	-0.0001
491.923	-0.0008
492.277	-0.002
492.63	-0.0005
492.983	-0.0016
493.337	-0.0016
493.69	-0.0019
494.043	0.0006
494.396	-0.0009
494.749	0.0037
495.102	0.0025
495.455	0.0009
495.808	-0.004
496.161	-0.0034
496.514	-0.002
496.867	-0
497.22	0
497.572	0.0003
497.925	0.0006
498.278	-0.0021
498.63	-0.0016
498.983	-0.0029
499.335	-0.0028
499.688	-0.003
500.04	-0.0039
500.393	-0.0033
500.745	-0.0029
501.097	-0.0031
501.449	-0.0024
501.802	-0.0046
502.154	-0.0047
502.506	-0.005
502.858	-0.0034
503.21	-0.0022
503.562	-0.0005
503.914	0.0025
504.266	0.001
504.618	0.0013
504.969	-0.0021
505.321	-0.0007
505.673	-0.0022
506.025	0.0012
506.376	0.0024
506.728	0.0018
507.079	-0.0014
507.431	-0.0032
507.782	-0.0036
508.134	-0.0022
508.485	-0.0023
508.836	-0.0022
509.188	-0.0021
509.539	-0.0017
509.89	-0.0011
510.241	-0.0035
510.592	-0.0035
510.943	-0.0032
511.294	-0.0032
511.645	-0.002
511.996	-0.0016
512.347	-0.0004
512.698	-0.004
513.049	-0.0065
513.399	-0.0058
513.75	-0.0033
514.101	-0.0006
514.451	-0.0012
514.802	-0.0017
515.152	-0.0026
515.503	-0.0004
515.853	-0.0017
516.203	-0.0019
516.554	-0.0039
516.904	-0.0024
517.254	-0
517.604	0.001
517.955	0.0005
518.305	-0.001
518.655	-0.0015
519.005	-0.0014
519.355	-0.0019
519.705	-0.0016
520.055	-0.0021
520.404	-0.0031
520.754	-0.004
521.104	-0.0047
521.454	-0.0055
521.803	-0.0047
522.153	-0.0042
522.502	-0.0013
522.852	-0.0009
523.201	-0.001
523.551	-0.0041
523.9	-0.0039
524.249	-0.0058
524.599	-0.0056
524.948	-0.0088
525.297	-0.0065
525.646	-0.0067
525.995	-0.0044
526.344	-0.0037
526.694	-0.0012
527.042	-0.0008
527.391	-0.001
527.74	-0.0016
528.089	-0.0035
528.438	-0.0015
528.787	-0.002
529.135	-0.0018
529.484	-0.0039
529.833	-0.0047
530.181	-0.0028
530.53	-0.0021
530.878	-0.0026
531.227	-0.0023
531.575	-0.0028
531.923	-0.0018
532.271	-0.0058
532.62	-0.0073
532.968	-0.0064
533.316	-0.0031
533.664	-0.0026
534.012	-0.0012
534.36	-0.0029
534.708	-0.0021
535.056	-0.0015
535.404	0.0001
535.752	0.0004
536.1	-0.0034
536.447	-0.0045
536.795	-0.0023
537.143	-0.0029
537.49	-0.0001
537.838	-0.0046
538.185	-0.0007
538.533	-0.0031
538.88	-0.0023
539.228	-0.0072
539.575	-0.0056
539.922	-0.0014
540.269	0.0012
540.617	0.0002
540.964	-0.0038
541.311	-0.0048
541.658	-0.0059
542.005	-0.0048
542.352	-0.0034
542.699	-0.0032
543.045	-0.0044
543.392	-0.0059
543.739	-0.0057
544.086	-0.0059
544.432	-0.0046
544.779	-0.0048
545.126	-0.0033
545.472	-0.0026
545.819	-0.0036
546.165	-0.0043
546.512	-0.0061
546.858	-0.0045
547.204	-0.0049
547.55	-0.0035
547.897	-0.0044
548.243	-0.0014
548.589	-0.0065
548.935	-0.0052
549.281	-0.007
549.627	-0.005
549.973	-0.0059
550.319	-0.0033
550.665	-0.0028
551.01	-0.003
551.356	-0.0061
551.702	-0.0047
552.048	-0.003
552.393	-0.0024
552.739	0.0002
553.084	-0.0053
553.43	-0.0044
553.775	-0.0069
554.12	-0.0024
554.466	-0.0058
554.811	-0.0061
555.156	-0.0069
555.502	-0.0056
555.847	-0.0043
556.192	-0.0043
556.537	-0.0026
556.882	-0.0024
557.227	-0.003
557.572	-0.0037
557.917	-0.0059
558.261	-0.0032
558.606	-0.0048
558.951	-0.0046
559.295	-0.0081
559.64	-0.0065
559.985	-0.0032
560.329	-0.0006
560.674	-0.0032
561.018	-0.0059
561.363	-0.0064
561.707	-0.0052
562.051	-0.002
562.395	-0.0038
562.74	-0.0038
563.084	-0.0069
563.428	-0.0084
563.772	-0.0076
564.116	-0.009
564.46	-0.0062
564.804	-0.0064
565.148	-0.0035
565.492	-0.0063
565.835	-0.0073
566.179	-0.0095
566.523	-0.0063
566.866	-0.0035
567.21	-0.0041
567.554	-0.0064
567.897	-0.0077
568.24	-0.0037
568.584	-0.0033
568.927	-0.0036
569.271	-0.0079
569.614	-0.0053
569.957	-0.0038
570.3	-0.003
570.643	-0.0046
570.986	-0.0073
571.329	-0.0032
571.672	-0.0041
572.015	-0.0032
572.358	-0.0061
572.701	-0.0046
573.044	-0.0042
573.387	-0.0042
573.729	-0.0052
574.072	-0.0079
574.414	-0.0081
574.757	-0.0095
575.099	-0.008
575.442	-0.0073
575.784	-0.0072
576.127	-0.0046
576.469	-0.0053
576.811	-0.0047
577.153	-0.0082
577.496	-0.008
577.838	-0.0097
578.18	-0.0076
578.522	-0.007
578.864	-0.0029
579.206	-0.002
579.548	-0.0029
579.889	-0.0041
580.231	-0.0067
580.573	-0.0079
580.915	-0.0082
581.256	-0.0093
581.598	-0.01
581.939	-0.0085
582.281	-0.0091
582.622	-0.0077
582.964	-0.0113
583.305	-0.008
583.646	-0.0052
583.988	-0.0023
584.329	-0.0049
584.67	-0.0061
585.011	-0.0091
585.352	-0.0086
585.693	-0.0098
586.034	-0.0073
586.375	-0.0069
586.716	-0.0093
587.057	-0.0095
587.398	-0.0081
587.738	-0.0068
588.079	-0.0078
588.42	-0.0085
588.76	-0.0073
589.101	-0.0052
589.441	-0.0041
589.782	-0.0047
590.122	-0.0075
590.463	-0.0089
590.803	-0.0087
591.143	-0.0107
591.483	-0.0103
591.823	-0.0101
592.164	-0.007
592.504	-0.0071
592.844	-0.0096
593.184	-0.0075
593.523	-0.009
593.863	-0.007
594.203	-0.0066
594.543	-0.006
594.883	-0.0045
595.222	-0.0051
595.562	-0.0049
595.901	-0.0073
596.241	-0.008
596.58	-0.0079
596.92	-0.0057
597.259	-0.0055
597.599	-0.0053
597.938	-0.0094
598.277	-0.01
598.616	-0.0101
598.955	-0.0066
599.295	-0.0092
599.634	-0.0054
599.973	-0.0092
600.312	-0.007
600.65	-0.0107
600.989	-0.0058
601.328	-0.0025
601.667	-0.0041
602.005	-0.007
602.344	-0.0105
602.683	-0.0105
603.021	-0.0104
603.36	-0.0112
603.698	-0.0111
604.037	-0.0116
604.375	-0.0094
604.713	-0.0073
605.052	-0.0056
605.39	-0.0071
605.728	-0.0069
606.066	-0.0078
606.404	-0.0083
606.742	-0.0084
607.08	-0.0093
607.418	-0.0077
607.756	-0.0076
608.094	-0.0043
608.431	-0.002
608.769	-0.0045
609.107	-0.0038
609.444	-0.0076
609.782	-0.0058
610.12	-0.0063
610.457	-0.0057
610.794	-0.0055
611.132	-0.0083
611.469	-0.0077
611.806	-0.0085
612.144	-0.008
612.481	-0.0085
612.818	-0.0092
613.155	-0.0078
613.492	-0.0072
613.829	-0.0042
614.166	-0.0052
614.503	-0.0054
614.84	-0.0078
615.176	-0.0074
615.513	-0.0069
615.85	-0.0042
616.187	-0.0031
616.523	-0.0036
616.86	-0.0075
617.196	-0.0118
617.533	-0.0112
617.869	-0.0083
618.205	-0.007
618.542	-0.0108
618.878	-0.0128
619.214	-0.0103
619.55	-0.0089
619.886	-0.0079
620.222	-0.0083
620.558	-0.0056
620.894	-0.0039
621.23	-0.0064
621.566	-0.0045
621.902	-0.0081
622.238	-0.0084
622.573	-0.0119
622.909	-0.0132
623.244	-0.0147
623.58	-0.0175
623.916	-0.0128
624.251	-0.0069
624.586	-0.0033
624.922	-0.0066
625.257	-0.0114
625.592	-0.0123
625.927	-0.0121
626.263	-0.0086
626.598	-0.0102
626.933	-0.0092
627.268	-0.0087
627.603	-0.0066
627.938	-0.0032
628.272	-0.0033
628.607	-0.0018
628.942	-0.0058
629.277	-0.0058
629.611	-0.0044
629.946	-0.0071
630.281	-0.0071
630.615	-0.0113
630.949	-0.0071
631.284	-0.006
631.618	-0.0048
631.953	-0.0074
632.287	-0.0108
632.621	-0.0133
632.955	-0.0127
633.289	-0.0114
633.623	-0.0095
633.957	-0.0092
634.291	-0.0083
634.625	-0.0101
634.959	-0.0133
635.293	-0.0109
635.627	-0.0069
635.96	0
636.294	-0.0002
636.627	-0.006
636.961	-0.0096
637.294	-0.0093
637.628	-0.0062
637.961	-0.0126
638.295	-0.0084
638.628	-0.0079
638.961	-0.0014
639.294	-0.0083
639.628	-0.0093
639.961	-0.0089
640.294	-0.0087
640.627	-0.0094
640.96	-0.0109
641.293	-0.0091
641.625	-0.0047
641.958	-0.0043
642.291	-0.0032
642.624	-0.0037
642.956	-0.0068
643.289	-0.0043
643.621	-0.0056
643.954	-0.0033
644.286	-0.0064
644.619	-0.0076
644.951	-0.008
645.283	-0.0062
645.616	-0.0084
645.948	-0.0076
646.28	-0.0104
646.612	-0.0078
646.944	-0.0098
647.276	-0.0095
647.608	-0.0088
647.94	-0.0058
648.272	-0.0003
648.603	0.0021
648.935	-0.0009
649.267	-0.0058
649.598	-0.0109
649.93	-0.0074
650.261	-0.0061
650.593	-0.0065
650.924	-0.0101
651.256	-0.0104
651.587	-0.0067
651.918	-0.0025
652.25	-0.0016
652.581	-0.0036
652.912	-0.0063
653.243	-0.0085
653.574	-0.0055
653.905	-0.003
654.236	-0.001
654.567	-0.0021
654.897	-0.0067
655.228	-0.0087
655.559	-0.0065
655.89	-0.0023
656.22	-0.0059
656.551	-0.0075
656.881	-0.0035
657.212	0.0012
657.542	0.0013
657.872	-0.0022
658.203	0.0007
658.533	-0.0037
658.863	-0.0082
659.193	-0.0108
659.523	-0.0144
659.853	-0.0152
660.183	-0.0152
660.513	-0.014
660.843	-0.0111
661.173	-0.0098
661.503	-0.0127
661.833	-0.012
662.162	-0.0113
662.492	-0.0059
662.822	-0.0097
663.151	-0.0107
663.481	-0.0158
663.81	-0.0129
664.139	-0.0115
664.469	-0.0029
664.798	0.0007
665.127	0.0034
665.456	0.0005
665.785	-0.003
666.114	-0.0032
666.443	-0.0047
666.772	-0.0006
667.101	0.0008
667.43	-0.0047
667.759	-0.0108
668.088	-0.0146
668.416	-0.0114
668.745	-0.0087
669.074	-0.0085
669.402	-0.0049
669.731	-0.002
670.059	-0.0047
670.388	-0.0056
670.716	-0.0139
671.044	-0.0097
671.372	-0.0096
671.701	-0.0066
672.029	-0.0124
672.357	-0.0141
672.685	-0.0122
673.013	-0.0117
673.341	-0.0145
673.669	-0.0153
673.996	-0.0138
674.324	-0.0096
674.652	-0.0081
674.98	-0.0072
675.307	-0.0045
675.635	-0.0057
675.962	-0.0063
676.29	-0.0145
676.617	-0.0139
676.945	-0.0169
677.272	-0.0158
677.599	-0.0168
677.926	-0.0133
678.253	-0.0135
678.581	-0.0104
678.908	-0.0075
679.235	-0.0059
679.561	-0.0071
679.888	-0.0091
680.215	-0.0073
680.542	-0.0073
680.869	-0.0053
681.195	-0.0026
681.522	0.0006
681.849	0.0012
682.175	-0.0028
682.502	-0.0099
682.828	-0.0123
683.154	-0.0106
683.481	-0.0044
683.807	-0.0047
684.133	-0.0045
684.459	-0.0049
684.785	-0.005
685.111	-0.0108
685.437	-0.0147
685.763	-0.0173
686.089	-0.0112
686.415	-0.0116
686.741	-0.0098
687.067	-0.0064
687.392	-0.0043
687.718	-0.001
688.043	-0.0066
688.369	-0.0081
688.694	-0.0112
689.02	-0.0077
689.345	-0.0084
689.67	-0.0068
689.996	-0.0108
690.321	-0.0081
690.646	-0.0101
690.971	-0.0077
691.296	-0.0091
691.621	-0.0039
691.946	-0.0036
692.271	-0.0008
692.596	-0.0072
692.921	-0.0093
693.245	-0.0141
693.57	-0.0156
693.895	-0.0139
694.219	-0.0135
694.544	-0.0105
694.868	-0.01
695.193	-0.0082
695.517	-0.0052
695.841	-0.006
696.166	-0.0066
696.49	-0.0061
696.814	-0.008
697.138	-0.0076
697.462	-0.0071
697.786	-0.0086
698.11	-0.0041
698.434	-0.0067
698.758	-0.0011
699.081	-0.0024
699.405	-0.0054
699.729	-0.0055
700.052	-0.0073
700.376	-0.0056
700.7	-0.0019
701.023	-0.0014
701.346	-0.0004
701.67	-0.0072
701.993	-0.0017
702.316	-0.005
702.639	-0.004
702.963	-0.0071
703.286	-0.0039
703.609	-0.0041
703.932	-0.0103
704.255	-0.0048
704.578	-0.0078
704.9	-0.0057
705.223	-0.0099
705.546	-0.0093
705.868	-0.0098
706.191	-0.0081
706.514	-0.0066
706.836	-0.0022
707.159	-0.0042
707.481	-0.0024
707.803	-0.0003
708.126	-0.0014
708.448	-0.0036
708.77	-0.0079
709.092	-0.0057
709.414	-0.0028
709.736	-0.0082
710.058	-0.009
710.38	-0.0133
710.702	-0.0073
711.024	-0.0097
711.345	-0.0065
711.667	-0.0077
711.989	-0.0072
712.31	-0.0085
712.632	-0.0098
712.953	-0.0115
713.275	-0.0094
713.596	-0.0103
713.917	-0.0074
714.239	-0.0068
714.56	-0.0023
714.881	-0.0061
715.202	-0.0077
715.523	-0.0116
715.844	-0.0083
716.165	-0.0115
716.486	-0.0076
716.807	-0.0062
717.128	-0.0017
717.448	-0.0034
717.769	-0.0015
718.09	-0.0009
718.41	-0.0018
718.731	-0.0011
719.051	-0.0055
719.372	-0.0059
719.692	-0.0118
720.012	-0.0093
720.332	-0.0114
720.653	-0.0159
720.973	-0.022
721.293	-0.0192
721.613	-0.0074
721.933	-0.0011
722.253	0.0037
722.573	-0.0038
722.892	-0.0009
723.212	-0.0031
723.532	-0.0067
723.851	-0.009
724.171	-0.0166
724.491	-0.0156
724.81	-0.0172
725.129	-0.0156
725.449	-0.0155
725.768	-0.0125
726.087	-0.0121
726.407	-0.0134
726.726	-0.018
727.045	-0.0112
727.364	-0.0082
727.683	-0.0043
728.002	-0.0066
728.321	-0.0078
728.64	-0.0103
728.958	-0.0138
729.277	-0.0097
729.596	-0.0088
729.914	-0.0051
730.233	-0.0086
730.551	-0.0069
730.87	-0.0071
731.188	-0.0058
731.507	-0.0053
731.825	-0.0062
732.143	-0.0033
732.461	-0.0026
732.779	-0.0054
733.097	-0.0095
733.415	-0.011
733.733	-0.0123
734.051	-0.0108
734.369	-0.012
734.687	-0.0077
735.005	-0.0053
735.322	-0.0113
735.64	-0.0128
735.957	-0.0172
736.275	-0.0127
736.592	-0.0127
736.91	-0.0107
737.227	-0.0126
737.544	-0.0114
737.862	-0.0083
738.179	-0.0075
738.496	-0.0059
738.813	-0.0106
739.13	-0.0078
739.447	-0.0082
739.764	-0.0061
740.081	-0.012
740.398	-0.0159
740.714	-0.0127
741.031	-0.0052
741.348	-0.0077
741.664	-0.0081
741.981	-0.0114
742.297	-0.0102
742.614	-0.0133
742.93	-0.0087
743.246	-0.0063
743.563	-0.0081
743.879	-0.0148
744.195	-0.0186
744.511	-0.0146
744.827	-0.0142
745.143	-0.0123
745.459	-0.0156
745.775	-0.0144
746.091	-0.0125
746.406	-0.0098
746.722	-0.0085
747.038	-0.0076
747.353	-0.0065
747.669	-0.0052
747.984	-0.0005
748.3	0.0021
748.615	0.0037
748.93	-0.0004
749.246	-0.0044
749.561	-0.0061
749.876	-0.0066
750.191	-0.0095
750.506	-0.0105
750.821	-0.0081
751.136	-0.0032
751.451	0.0011
751.766	-0.0029
752.08	-0.0081
752.395	-0.0148
752.71	-0.0136
753.024	-0.0112
753.339	-0.0154
753.653	-0.0172
753.968	-0.0154
754.282	-0.0027
754.596	-0.0025
754.911	-0.0144
755.225	-0.0218
755.539	-0.0186
755.853	-0.0051
756.167	-0.0035
756.481	-0.004
756.795	-0.0067
757.109	-0.0072
757.423	-0.013
757.736	-0.0127
758.05	-0.0147
758.364	-0.0114
758.677	-0.0119
758.991	-0.0117
759.304	-0.0154
759.618	-0.0104
759.931	-0.0092
760.244	-0.0044
760.558	-0.0082
760.871	-0.0045
761.184	-0.0042
761.497	-0.0054
761.81	-0.0092
762.123	-0.0116
762.436	-0.0098
762.749	-0.0108
763.062	-0.0114
763.374	-0.0094
763.687	-0.0073
764	-0.0066
764.312	-0.0048
764.625	-0.0079
764.937	-0.0086
765.25	-0.0111
765.562	-0.0054
765.874	-0.0088
766.186	-0.0115
766.499	-0.0185
766.811	-0.0166
767.123	-0.0189
767.435	-0.0145
767.747	-0.0094
768.059	-0.0051
768.37	-0.0061
768.682	-0.0091
768.994	-0.0135
769.306	-0.0118
769.617	-0.0061
769.929	-0.0101
770.24	-0.0087
770.552	-0.0137
770.863	-0.0068
771.174	-0.0117
771.486	-0.0103
771.797	-0.0093
772.108	-0.0117
772.419	-0.0134
772.73	-0.0114
773.041	-0.0031
773.352	-0.002
773.663	-0.0045
773.974	-0.0064
774.285	-0.0096
774.595	-0.0081
774.906	-0.012
775.217	-0.0064
775.527	-0.0077
775.838	-0.0064
776.148	-0.0104
776.458	-0.0047
776.769	-0.0036
777.079	-0.0064
777.389	-0.0138
777.699	-0.0099
778.009	-0.0085
778.319	-0.0067
778.629	-0.0129
778.939	-0.0142
779.249	-0.014
779.559	-0.0106
779.869	-0.0039
780.178	-0.0012
780.488	-0.0016
780.798	-0.0071
781.107	-0.0174
781.417	-0.0183
781.726	-0.016
782.035	-0.0073
782.345	-0.0083
782.654	-0.0109
782.963	-0.0102
783.272	-0.0116
783.581	-0.0118
783.89	-0.0141
784.199	-0.0116
784.508	-0.0124
784.817	-0.0146
785.126	-0.0183
785.434	-0.0203
785.743	-0.0165
786.052	-0.012
786.36	-0.0086
786.669	-0.0102
786.977	-0.0147
787.285	-0.0137
787.594	-0.0132
787.902	-0.0086
788.21	-0.01
788.518	-0.0117
788.826	-0.0135
789.135	-0.0166
789.442	-0.0194
789.75	-0.0196
790.058	-0.0134
790.366	-0.0135
790.674	-0.0138
790.981	-0.0118
791.289	-0.0087
791.597	-0.0061
791.904	-0.0062
792.212	-0.0074
792.519	-0.0093
792.826	-0.0119
793.134	-0.0093
793.441	-0.0068
793.748	-0.0031
794.055	-0.0058
794.362	-0.009
794.669	-0.014
794.976	-0.0117
795.283	-0.015
795.59	-0.0104
795.897	-0.0097
796.203	-0.0074
796.51	-0.0047
796.817	-0.0074
797.123	-0.005
797.43	-0.0081
797.736	-0.0057
798.042	-0.0083
798.349	-0.0071
798.655	-0.0083
798.961	-0.0063
799.267	-0.0123
799.573	-0.0158
799.879	-0.0127
800.185	-0.0055
800.491	-0.0041
800.797	-0.0049
801.103	-0.0054
801.408	-0.0044
801.714	-0.0044
802.02	-0.0095
802.325	-0.0082
802.631	-0.0084
802.936	-0.004
803.242	-0.0018
803.547	0.0013
803.852	0.0009
804.157	0.0036
804.462	-0.0016
804.768	0.0028
805.073	-0.0176
805.378	-0.0126
805.682	-0.0174
805.987	-0.0089
806.292	-0.0116
806.597	-0.0123
806.902	-0.0045
807.206	-0.0122
807.511	-0.0123
807.815	-0.0207
808.12	-0.0101
808.424	-0.0108
808.728	-0.0075
809.033	-0.0097
809.337	-0.0058
809.641	0.0024
809.945	-0.0011
810.249	-0.0031
810.553	-0.006
810.857	-0.0062
811.161	-0.0068
811.465	-0.0096
811.768	0.0031
812.072	0.0053
812.376	0.0092
812.679	0.0007
812.983	-0.0012
813.286	-0.0061
813.59	-0.0098
813.893	-0.0086
814.196	-0.0085
814.499	-0.0125
814.803	-0.0202
815.106	-0.021
815.409	-0.0166
815.712	-0.0104
816.015	-0.008
816.318	-0.0077
816.62	-0.0143
816.923	-0.0155
817.226	-0.0137
817.528	-0.0133
817.831	-0.009
818.133	-0.0054
818.436	0.0036
818.738	0.006
819.041	0.0009
819.343	-0.0029
819.645	-0.0108
819.947	-0.0129
820.249	-0.0152
820.551	-0.0103
820.853	-0.0045
821.155	-0.0017
821.457	-0.0062
821.759	-0.0077
822.061	-0.0075
822.362	-0.0018
822.664	0.0012
822.966	-0.0017
823.267	-0.0095
823.569	-0.0175
823.87	-0.0165
824.171	-0.0141
824.473	-0.0086
824.774	-0.0101
825.075	-0.0114
825.376	-0.0139
825.677	-0.0092
825.978	-0.0075
826.279	-0.0034
826.58	0.0021
826.881	-0.0018
827.181	-0.0021
827.482	-0.0068
827.783	-0.0052
828.083	-0.0141
828.384	-0.0146
828.684	-0.0129
828.985	-0.004
829.285	-0.0016
829.585	-0.003
829.885	-0.008
830.185	-0.0006
830.486	0.0029
830.786	-0
831.086	-0.0172
831.385	-0.0183
831.685	-0.0174
831.985	-0.0243
832.285	-0.0254
832.585	-0.0207
832.884	-0.0165
833.184	-0.0231
833.483	-0.0245
833.783	-0.0107
834.082	-0.0069
834.381	-0.0001
834.681	-0.0092
834.98	-0.005
835.279	-0.0011
835.578	0.0041
835.877	-0.0024
836.176	-0.0079
836.475	-0.0195
836.774	-0.0211
837.072	-0.0283
837.371	-0.0159
837.67	-0.0094
837.968	-0.0046
838.267	-0.0025
838.565	-0.0008
838.864	0.0084
839.162	0.0092
839.46	0.004
839.759	0.0004
840.057	-0.002
840.355	0.0031
840.653	-0.0011
840.951	0.0076
841.249	0.0133
841.547	0.0054
841.845	-0.0089
842.142	-0.0138
842.44	-0.0103
842.738	-0.0072
843.035	-0.0065
843.333	-0.0125
843.63	-0.0149
843.928	-0.0237
844.225	-0.0145
844.522	-0.0044
844.82	0.0004
845.117	0.0093
845.414	-0.0041
845.711	0.0034
846.008	-0.0089
846.305	-0.0018
846.602	-0.0068
846.898	0.0009
847.195	-0.0021
847.492	-0.0129
847.788	-0.0118
848.085	-0.0222
848.382	0.0016
848.678	-0.0091
848.974	0.005
849.271	-0.0066
849.567	0.0015
849.863	-0.0006
850.159	0.0023
850.455	-0.0106
850.751	-0.0049
851.047	-0.0079
851.343	0.0086
851.639	0.007
851.935	0.0003
852.23	-0.0077
852.526	-0.0143
852.822	0.0085
853.117	0.0201
853.413	0.0349
853.708	0.0144
854.003	0.0028
854.299	-0.0146
854.594	-0.0159
854.889	-0.0129
855.184	-0.0086
855.479	-0.0193
855.774	-0.0076
856.069	-0.0142
856.364	-0.0212
856.659	-0.0227
856.954	-0.0077
857.248	0.0099
857.543	0.0001
857.837	-0.0239
858.132	-0.0176
858.426	-0.027
858.721	-0.0066
859.015	-0.0074
859.309	0.0012
859.604	0.0089
859.898	0.015
860.192	0.0135
860.486	0.0169
860.78	0.0094
861.074	0.0172
861.367	-0.0113
861.661	-0.0146
861.955	-0.0186
862.248	-0.0111
862.542	-0.0056
862.836	0.0047
863.129	0.0159
863.422	0.021
863.716	0.0004
864.009	0.0145
864.302	0.0023
864.595	0.022
864.889	0.0035
865.182	0.0021
865.475	-0.0218
865.767	-0.0267
866.06	-0.0257
866.353	-0.0213
866.646	0.0137
866.938	0.0373
867.231	0.0347
867.524	0.0367
867.816	-0.0016
868.109	-0.0028
868.401	-0.0285
868.693	0.0095
868.985	0.0304
869.278	0.0601
869.57	0.0591
869.862	0.0478
870.154	0.0077
870.446	-0.0136
870.738	-0.0217
871.029	0.0049
871.321	0.0317
871.613	0.0281
871.904	0.0225
872.196	-0.0086
872.487	-0.0072
872.779	-0.0119
873.07	0.0075
873.362	0.0078
873.653	-0.0062
873.944	0.0146
874.235	0.0234
874.526	0.0258
874.817	-0.0068
875.108	-0.0098
875.399	0.0147
875.69	0.0132
875.981	0.0066
876.271	0.008
876.562	-0.0004
876.853	0.0087
877.143	-0.0256
877.434	-0.0201
877.724	-0.0559
878.014	-0.0416
878.305	-0.0465
878.595	-0.0148
878.885	-0.0411
879.175	-0.0478
879.465	-0.0326
879.755	-0.0132
880.045	0.008
880.335	-0.0076
880.624	-0.0129
880.914	-0.0129
