Data from StonyCreek_071017_2_1a_Absorbance_22-32-34-618.txt Node
Date: Tue Jul 18 22:32:34 MDT 2017
User: Tank Lab
Spectrometer: FLMS01220
Trigger mode: 0
Integration Time (sec): 1.000000E-1
Scans to average: 10
Electric dark correction enabled: true
Nonlinearity correction enabled: false
Boxcar width: 1
XAxis mode: Wavelengths
Number of Pixels in Spectrum: 2048
>>>>>Begin Spectral Data<<<<<
179.47	0.3541
179.856	0.3541
180.241	0.8417
180.626	2.4239
181.011	-0
181.396	1.3248
181.781	-0
182.166	-0
182.551	-0.0653
182.936	0.1789
183.321	-0
183.706	-0.0679
184.091	0.0152
184.476	-0.1789
184.86	-0.761
185.245	-0
185.63	-0
186.015	0.6544
186.399	-0
186.784	0.0602
187.169	0.0458
187.553	0.0162
187.938	0.0178
188.322	0.1573
188.707	0.1661
189.091	0.1676
189.475	0.1731
189.86	0.1538
190.244	0.2035
190.629	0.2048
191.013	0.2585
191.397	0.2661
191.781	0.3376
192.165	0.3854
192.55	0.426
192.934	0.4369
193.318	0.4389
193.702	0.4772
194.086	0.5005
194.47	0.5291
194.854	0.5564
195.238	0.5751
195.622	0.6013
196.006	0.5741
196.389	0.5651
196.773	0.5501
197.157	0.5481
197.541	0.5326
197.924	0.5181
198.308	0.4974
198.692	0.4849
199.075	0.4761
199.459	0.4821
199.843	0.4795
200.226	0.4648
200.61	0.4495
200.993	0.4376
201.376	0.4361
201.76	0.4277
202.143	0.4268
202.527	0.4164
202.91	0.4076
203.293	0.4023
203.676	0.4028
204.059	0.4011
204.443	0.3947
204.826	0.3876
205.209	0.3826
205.592	0.3752
205.975	0.3686
206.358	0.3617
206.741	0.3565
207.124	0.3501
207.507	0.3502
207.89	0.3477
208.273	0.3464
208.655	0.3445
209.038	0.3429
209.421	0.3375
209.804	0.3342
210.186	0.3303
210.569	0.3297
210.951	0.3256
211.334	0.3236
211.717	0.3218
212.099	0.3193
212.482	0.3151
212.864	0.313
213.246	0.3086
213.629	0.3122
214.011	0.314
214.393	0.315
214.776	0.3095
215.158	0.3052
215.54	0.2996
215.922	0.2985
216.305	0.2946
216.687	0.2954
217.069	0.2935
217.451	0.2924
217.833	0.29
218.215	0.2862
218.597	0.2839
218.979	0.2832
219.361	0.2812
219.742	0.2771
220.124	0.273
220.506	0.2709
220.888	0.269
221.27	0.2666
221.651	0.265
222.033	0.2627
222.415	0.2615
222.796	0.2578
223.178	0.2557
223.559	0.252
223.941	0.2497
224.322	0.2472
224.704	0.2475
225.085	0.2457
225.466	0.2433
225.848	0.2394
226.229	0.2384
226.61	0.2385
226.992	0.2393
227.373	0.2358
227.754	0.2315
228.135	0.2277
228.516	0.2275
228.897	0.2275
229.278	0.2256
229.659	0.2213
230.04	0.2183
230.421	0.2147
230.802	0.2131
231.183	0.2115
231.564	0.2112
231.944	0.211
232.325	0.2101
232.706	0.2081
233.087	0.2074
233.467	0.2074
233.848	0.2059
234.229	0.2047
234.609	0.2022
234.99	0.2001
235.37	0.1998
235.751	0.1991
236.131	0.1995
236.511	0.1953
236.892	0.193
237.272	0.1899
237.652	0.1886
238.033	0.1878
238.413	0.1872
238.793	0.1852
239.173	0.1845
239.553	0.1854
239.933	0.1861
240.313	0.1837
240.694	0.1808
241.074	0.179
241.453	0.1791
241.833	0.1775
242.213	0.1774
242.593	0.1763
242.973	0.1759
243.353	0.1741
243.732	0.1717
244.112	0.1698
244.492	0.1693
244.872	0.1696
245.251	0.1702
245.631	0.1682
246.01	0.167
246.39	0.165
246.769	0.1646
247.149	0.1637
247.528	0.1635
247.908	0.1632
248.287	0.1637
248.666	0.1644
249.045	0.1629
249.425	0.1614
249.804	0.1588
250.183	0.1599
250.562	0.1592
250.941	0.1597
251.32	0.1583
251.699	0.1585
252.078	0.1577
252.457	0.1574
252.836	0.1559
253.215	0.1552
253.594	0.1545
253.973	0.154
254.352	0.1527
254.731	0.1535
255.109	0.1529
255.488	0.153
255.867	0.1513
256.245	0.1513
256.624	0.1497
257.002	0.1496
257.381	0.1471
257.759	0.1476
258.138	0.1474
258.516	0.1476
258.895	0.1476
259.273	0.1465
259.651	0.147
260.03	0.146
260.408	0.1435
260.786	0.1423
261.164	0.142
261.542	0.1434
261.921	0.1444
262.299	0.1439
262.677	0.1426
263.055	0.1411
263.433	0.1401
263.811	0.1405
264.188	0.1381
264.566	0.1384
264.944	0.1365
265.322	0.1384
265.7	0.137
266.077	0.1366
266.455	0.1341
266.833	0.1335
267.21	0.1338
267.588	0.1331
267.966	0.1321
268.343	0.1315
268.721	0.1326
269.098	0.1326
269.475	0.1314
269.853	0.1303
270.23	0.1295
270.607	0.1292
270.985	0.1276
271.362	0.1256
271.739	0.1254
272.116	0.1243
272.494	0.125
272.871	0.1238
273.248	0.1245
273.625	0.1237
274.002	0.1222
274.379	0.1222
274.756	0.1218
275.132	0.1204
275.509	0.119
275.886	0.1172
276.263	0.1187
276.64	0.1188
277.016	0.1181
277.393	0.116
277.77	0.1144
278.146	0.1151
278.523	0.1144
278.899	0.1147
279.276	0.1132
279.652	0.1133
280.029	0.112
280.405	0.1118
280.782	0.1111
281.158	0.1101
281.534	0.1099
281.91	0.1085
282.287	0.1075
282.663	0.1078
283.039	0.1089
283.415	0.1084
283.791	0.1067
284.167	0.1055
284.543	0.106
284.919	0.1045
285.295	0.104
285.671	0.1024
286.047	0.1038
286.423	0.1041
286.799	0.1051
287.174	0.1041
287.55	0.1015
287.926	0.1004
288.301	0.099
288.677	0.0994
289.053	0.0979
289.428	0.098
289.804	0.0974
290.179	0.0991
290.555	0.0984
290.93	0.0985
291.305	0.095
291.681	0.0937
292.056	0.0941
292.431	0.0942
292.806	0.0953
293.182	0.0932
293.557	0.0948
293.932	0.0932
294.307	0.0921
294.682	0.0899
295.057	0.089
295.432	0.0888
295.807	0.0892
296.182	0.0884
296.557	0.0881
296.932	0.0878
297.306	0.0868
297.681	0.0864
298.056	0.0864
298.43	0.0882
298.805	0.0882
299.18	0.0856
299.554	0.0846
299.929	0.0835
300.303	0.0848
300.678	0.0844
301.052	0.0852
301.427	0.0849
301.801	0.0837
302.175	0.0833
302.55	0.0813
302.924	0.0811
303.298	0.0795
303.672	0.0794
304.046	0.0781
304.421	0.0766
304.795	0.0766
305.169	0.0762
305.543	0.0759
305.917	0.0741
306.291	0.0747
306.664	0.0766
307.038	0.076
307.412	0.0741
307.786	0.0739
308.16	0.0763
308.533	0.077
308.907	0.0749
309.281	0.0718
309.654	0.0728
310.028	0.073
310.401	0.0744
310.775	0.0724
311.148	0.0713
311.522	0.0695
311.895	0.0684
312.268	0.0672
312.642	0.0676
313.015	0.0683
313.388	0.0683
313.761	0.0685
314.135	0.0654
314.508	0.0651
314.881	0.0646
315.254	0.0669
315.627	0.0677
316	0.0678
316.373	0.0681
316.746	0.0658
317.118	0.0641
317.491	0.0634
317.864	0.0633
318.237	0.0632
318.61	0.0626
318.982	0.0628
319.355	0.0628
319.727	0.0613
320.1	0.0628
320.473	0.0633
320.845	0.0622
321.218	0.0615
321.59	0.0603
321.962	0.0616
322.335	0.0598
322.707	0.0588
323.079	0.059
323.452	0.0595
323.824	0.0595
324.196	0.058
324.568	0.0585
324.94	0.0574
325.312	0.059
325.684	0.0585
326.056	0.0581
326.428	0.0564
326.8	0.0552
327.172	0.0546
327.544	0.0533
327.915	0.0527
328.287	0.0527
328.659	0.0535
329.031	0.0542
329.402	0.0548
329.774	0.0541
330.145	0.0529
330.517	0.052
330.888	0.0505
331.26	0.0484
331.631	0.0473
332.003	0.0481
332.374	0.0499
332.745	0.0495
333.117	0.0493
333.488	0.0491
333.859	0.0495
334.23	0.0493
334.601	0.0483
334.972	0.0476
335.343	0.0481
335.714	0.0478
336.085	0.0471
336.456	0.0456
336.827	0.0451
337.198	0.0455
337.569	0.0453
337.94	0.046
338.31	0.0462
338.681	0.045
339.052	0.0441
339.422	0.0423
339.793	0.0431
340.164	0.0429
340.534	0.0435
340.905	0.0431
341.275	0.0437
341.645	0.0428
342.016	0.0429
342.386	0.0417
342.756	0.0421
343.127	0.0415
343.497	0.0414
343.867	0.0409
344.237	0.0386
344.607	0.0375
344.977	0.0385
345.347	0.0395
345.717	0.0391
346.087	0.0381
346.457	0.0388
346.827	0.0377
347.197	0.0373
347.567	0.0358
347.936	0.0384
348.306	0.039
348.676	0.0398
349.046	0.0384
349.415	0.0388
349.785	0.0384
350.154	0.0389
350.524	0.0375
350.893	0.0359
351.263	0.0353
351.632	0.0332
352.001	0.0349
352.371	0.0336
352.74	0.0346
353.109	0.0339
353.478	0.0347
353.847	0.0357
354.217	0.0357
354.586	0.0345
354.955	0.0341
355.324	0.0342
355.693	0.0341
356.062	0.0337
356.43	0.0323
356.799	0.0325
357.168	0.0324
357.537	0.0337
357.906	0.033
358.274	0.0308
358.643	0.0285
359.011	0.0293
359.38	0.0295
359.749	0.0298
360.117	0.0278
360.486	0.027
360.854	0.0275
361.222	0.027
361.591	0.0278
361.959	0.0268
362.327	0.0273
362.695	0.0261
363.064	0.0264
363.432	0.0248
363.8	0.027
364.168	0.0279
364.536	0.0292
364.904	0.0276
365.272	0.0271
365.64	0.0267
366.008	0.0267
366.376	0.0259
366.743	0.0269
367.111	0.0281
367.479	0.0289
367.847	0.0274
368.214	0.0255
368.582	0.0255
368.949	0.0256
369.317	0.0264
369.684	0.0264
370.052	0.0271
370.419	0.027
370.787	0.0245
371.154	0.0247
371.521	0.0249
371.889	0.0259
372.256	0.0244
372.623	0.0223
372.99	0.0199
373.357	0.0204
373.724	0.0238
374.091	0.0241
374.458	0.0229
374.825	0.019
375.192	0.0205
375.559	0.0221
375.926	0.0227
376.293	0.0229
376.659	0.0215
377.026	0.0211
377.393	0.0201
377.759	0.0192
378.126	0.0217
378.492	0.0227
378.859	0.0228
379.225	0.0194
379.592	0.0179
379.958	0.0178
380.325	0.0201
380.691	0.0195
381.057	0.0224
381.423	0.0197
381.79	0.0221
382.156	0.0201
382.522	0.0208
382.888	0.0181
383.254	0.0164
383.62	0.018
383.986	0.0191
384.352	0.0201
384.718	0.0191
385.084	0.0212
385.449	0.0196
385.815	0.0179
386.181	0.0159
386.547	0.0175
386.912	0.0173
387.278	0.0146
387.643	0.0155
388.009	0.0177
388.374	0.0185
388.74	0.0163
389.105	0.0154
389.471	0.0169
389.836	0.0159
390.201	0.0153
390.566	0.0146
390.932	0.0168
391.297	0.0174
391.662	0.0168
392.027	0.0153
392.392	0.0137
392.757	0.0119
393.122	0.0134
393.487	0.013
393.852	0.0156
394.217	0.0135
394.582	0.016
394.946	0.0178
395.311	0.0198
395.676	0.0205
396.04	0.0154
396.405	0.0135
396.77	0.0122
397.134	0.0159
397.499	0.0159
397.863	0.013
398.227	0.0117
398.592	0.0128
398.956	0.0144
399.32	0.0139
399.685	0.0127
400.049	0.0143
400.413	0.0169
400.777	0.0164
401.141	0.0199
401.505	0.0191
401.869	0.0176
402.233	0.0112
402.597	0.0087
402.961	0.0098
403.325	0.013
403.689	0.0134
404.053	0.0138
404.416	0.0104
404.78	0.0109
405.144	0.0104
405.507	0.013
405.871	0.012
406.234	0.0135
406.598	0.0122
406.961	0.0126
407.325	0.0129
407.688	0.0122
408.051	0.0132
408.415	0.0131
408.778	0.0144
409.141	0.012
409.504	0.0122
409.867	0.0099
410.23	0.0106
410.593	0.008
410.956	0.0113
411.319	0.0132
411.682	0.0139
412.045	0.0109
412.408	0.0099
412.771	0.0105
413.134	0.0117
413.496	0.0118
413.859	0.0112
414.222	0.0118
414.584	0.01
414.947	0.0102
415.309	0.0092
415.672	0.0108
416.034	0.0103
416.396	0.0105
416.759	0.0093
417.121	0.0099
417.483	0.0102
417.846	0.0127
418.208	0.014
418.57	0.0137
418.932	0.0112
419.294	0.0108
419.656	0.0094
420.018	0.0108
420.38	0.0089
420.742	0.0094
421.104	0.0091
421.466	0.0088
421.827	0.0101
422.189	0.009
422.551	0.0091
422.912	0.0071
423.274	0.0086
423.636	0.01
423.997	0.0124
424.359	0.0119
424.72	0.0105
425.081	0.0083
425.443	0.0053
425.804	0.0055
426.165	0.0042
426.527	0.0033
426.888	0.0029
427.249	0.0053
427.61	0.0096
427.971	0.0078
428.332	0.0066
428.693	0.0042
429.054	0.0064
429.415	0.0071
429.776	0.0076
430.137	0.0068
430.498	0.0065
430.858	0.0086
431.219	0.0105
431.58	0.0097
431.94	0.0089
432.301	0.0106
432.661	0.0105
433.022	0.01
433.382	0.0103
433.743	0.0096
434.103	0.0094
434.463	0.0013
434.824	0.0012
435.184	0.003
435.544	0.0065
435.904	0.0083
436.264	0.0058
436.624	0.0061
436.985	0.0066
437.345	0.0069
437.704	0.0095
438.064	0.0088
438.424	0.0062
438.784	0.0042
439.144	0.0087
439.504	0.0071
439.863	0.0069
440.223	0.0003
440.583	0.0039
440.942	0.0061
441.302	0.0087
441.661	0.008
442.021	0.0034
442.38	0.0023
442.739	0.0029
443.099	0.005
443.458	0.0046
443.817	0.0068
444.176	0.007
444.536	0.0053
444.895	0.0048
445.254	0.0049
445.613	0.0073
445.972	0.0045
446.331	0.0059
446.69	0.0031
447.049	0.0037
447.407	0.0023
447.766	0.0041
448.125	0.0049
448.484	0.0052
448.842	0.0086
449.201	0.0084
449.559	0.008
449.918	0.0044
450.276	0.0052
450.635	0.0049
450.993	0.0035
451.352	0.0019
451.71	0.001
452.068	0.0025
452.426	0.0061
452.785	0.0054
453.143	0.0067
453.501	0.0038
453.859	0.0064
454.217	0.0041
454.575	0.0042
454.933	0.003
455.291	0.0063
455.649	0.0045
456.006	0.0044
456.364	0.004
456.722	0.0046
457.079	0.0052
457.437	0.0037
457.795	0.0061
458.152	0.0075
458.51	0.0071
458.867	0.0042
459.225	0.0045
459.582	0.0063
459.939	0.0052
460.297	0.0021
460.654	-0.0008
461.011	-0.0002
461.368	0.0017
461.725	0.0015
462.082	0.0019
462.44	0.0033
462.797	0.005
463.153	0.007
463.51	0.0052
463.867	0.0081
464.224	0.0042
464.581	-0
464.938	-0.0008
465.294	0.0008
465.651	0.0028
466.008	0.0022
466.364	0.0036
466.721	0.0071
467.077	0.0055
467.434	0.0071
467.79	0.0059
468.146	0.0067
468.503	0.0113
468.859	0.0073
469.215	0.0014
469.571	-0.0066
469.927	-0.0037
470.284	0.0003
470.64	0.0037
470.996	0.006
471.352	0.0082
471.707	0.0074
472.063	0.0058
472.419	0.0052
472.775	0.0021
473.131	0.0049
473.486	0.0044
473.842	0.0071
474.198	0.0053
474.553	0.0061
474.909	0.0066
475.264	0.0068
475.62	0.0077
475.975	0.0063
476.331	0.004
476.686	0.0036
477.041	0.0049
477.396	0.0118
477.752	0.0118
478.107	0.0104
478.462	0.0014
478.817	-0.0006
479.172	0.0019
479.527	0.0029
479.882	0.0048
480.237	0.0028
480.591	0.0055
480.946	0.0025
481.301	0.0038
481.656	-0.0001
482.01	0.0011
482.365	-0.0029
482.72	0.0019
483.074	0.0025
483.429	0.0032
483.783	-0.0002
484.137	0.0029
484.492	0.0058
484.846	0.0077
485.2	0.0013
485.555	-0.0019
485.909	-0.0014
486.263	0.0008
486.617	0.0025
486.971	0.0021
487.325	0.0053
487.679	0.0077
488.033	0.0041
488.387	0.0082
488.741	0.0069
489.094	0.0044
489.448	-0.0025
489.802	0.002
490.156	0.0047
490.509	0.0005
490.863	-0.0059
491.216	-0.002
491.57	0.0028
491.923	0.0056
492.277	0.0015
492.63	0
492.983	-0.0014
493.337	0.0006
493.69	0.0031
494.043	0.0033
494.396	0.0016
494.749	-0.0011
495.102	-0.0035
495.455	-0.0027
495.808	-0.0034
496.161	0.0009
496.514	0.0005
496.867	0.0055
497.22	0.0027
497.572	0.002
497.925	0.0004
498.278	-0.0004
498.63	0.0064
498.983	0.0054
499.335	0.0052
499.688	-0.0023
500.04	-0.0042
500.393	-0.0058
500.745	-0.0031
501.097	-0.0004
501.449	0.0008
501.802	-0.0008
502.154	-0.0014
502.506	-0.0034
502.858	-0.0017
503.21	-0.0025
503.562	0.0006
503.914	0.0033
504.266	0.0057
504.618	0.0025
504.969	0.0027
505.321	-0.0027
505.673	0.0001
506.025	-0.0019
506.376	0.0017
506.728	-0.0007
507.079	-0.0029
507.431	-0.0032
507.782	-0.0006
508.134	0.0016
508.485	-0.0008
508.836	-0.002
509.188	-0.0009
509.539	0.0021
509.89	-0.0014
510.241	-0.0059
510.592	-0.0015
510.943	-0.0008
511.294	0.001
511.645	-0.0069
511.996	-0.0042
512.347	-0.0038
512.698	0.0005
513.049	0
513.399	-0.0002
513.75	-0.0026
514.101	0.0007
514.451	-0.0006
514.802	0.0007
515.152	-0.0014
515.503	0.0012
515.853	0.0011
516.203	-0.0025
516.554	-0.0054
516.904	-0.0036
517.254	-0.0016
517.604	-0.0014
517.955	-0.0049
518.305	-0.0007
518.655	0.0009
519.005	0.0026
519.355	0.0058
519.705	0.0053
520.055	0.0053
520.404	0.0017
520.754	0.004
521.104	0.0051
521.454	0.0045
521.803	0.0024
522.153	0.0004
522.502	-0.0035
522.852	-0.0064
523.201	-0.0061
523.551	-0.005
523.9	-0.001
524.249	0.0017
524.599	0.0014
524.948	-0.0002
525.297	-0.0001
525.646	-0.0002
525.995	-0.0005
526.344	-0.0044
526.694	-0.0022
527.042	-0.0022
527.391	-0.0012
527.74	-0.0012
528.089	-0.0018
528.438	-0.0005
528.787	-0.0018
529.135	-0.0018
529.484	0.0009
529.833	0.0018
530.181	0.0006
530.53	-0.0039
530.878	-0.0058
531.227	-0.0019
531.575	0.0015
531.923	0.0006
532.271	0.0004
532.62	-0.0003
532.968	0.0002
533.316	-0.0024
533.664	-0.0025
534.012	-0.0006
534.36	0.0017
534.708	-0.0012
535.056	-0.0017
535.404	-0.0059
535.752	-0.0018
536.1	-0.0021
536.447	0.0011
536.795	-0.0003
537.143	0.001
537.49	-0.0018
537.838	-0.0042
538.185	-0.0046
538.533	-0.0028
538.88	-0.0008
539.228	-0.0024
539.575	-0.002
539.922	-0.0011
540.269	0.0049
540.617	0.0041
540.964	0.0019
541.311	-0.0019
541.658	0
542.005	0.0002
542.352	-0.0013
542.699	-0.0024
543.045	-0.0045
543.392	-0.0015
543.739	-0.0052
544.086	-0.003
544.432	-0.0056
544.779	0.0001
545.126	-0.0023
545.472	-0.0029
545.819	-0.0054
546.165	-0.0018
546.512	0.0004
546.858	0.0023
547.204	0.0008
547.55	-0.0002
547.897	-0.0024
548.243	-0.0069
548.589	-0.0033
548.935	-0.0046
549.281	-0.0013
549.627	-0.0058
549.973	-0.0008
550.319	0.0005
550.665	0.002
551.01	-0.0039
551.356	-0.0098
551.702	-0.0141
552.048	-0.0162
552.393	-0.0093
552.739	-0.0057
553.084	-0.0012
553.43	-0.005
553.775	-0.0066
554.12	-0.0066
554.466	0.0009
554.811	0.0039
555.156	0.0036
555.502	0.0016
555.847	-0.0016
556.192	-0.0028
556.537	-0.0055
556.882	-0.0053
557.227	-0.0107
557.572	-0.0062
557.917	0.0011
558.261	0.0011
558.606	-0.0074
558.951	-0.0127
559.295	-0.0133
559.64	-0.0056
559.985	-0.0072
560.329	-0.0007
560.674	-0.0038
561.018	-0.0086
561.363	-0.0112
561.707	-0.0113
562.051	-0.0057
562.395	0.0037
562.74	0.0028
563.084	0.0054
563.428	0.0017
563.772	0.0049
564.116	-0.0008
564.46	-0.0041
564.804	-0.0026
565.148	-0.0052
565.492	-0.0009
565.835	0.0004
566.179	0.0084
566.523	0.0007
566.866	-0.005
567.21	-0.0083
567.554	-0.0041
567.897	-0.001
568.24	-0.0054
568.584	-0.0076
568.927	-0.0074
569.271	-0.0032
569.614	-0.0022
569.957	-0.0035
570.3	0.0005
570.643	0.0003
570.986	-0.0004
571.329	0
571.672	0.0032
572.015	0.0009
572.358	-0.0004
572.701	0.004
573.044	0.0009
573.387	0
573.729	0.0006
574.072	0.0053
574.414	0.005
574.757	0.0036
575.099	-0.0115
575.442	-0.0167
575.784	-0.0039
576.127	0.0083
576.469	0.0067
576.811	-0.0052
577.153	-0.0045
577.496	-0.0029
577.838	-0.0029
578.18	-0.0154
578.522	-0.0165
578.864	-0.018
579.206	0.0036
579.548	0.0059
579.889	-0.0067
580.231	0.0042
580.573	0.0125
580.915	0.0101
581.256	-0.0124
581.598	-0.0281
581.939	-0.03
582.281	-0.0046
582.622	-0.0064
582.964	-0.0007
583.305	-0.0124
583.646	-0.002
583.988	0.0334
584.329	0.0177
584.67	0.0031
585.011	-0.0253
585.352	-0.0317
585.693	-0.0181
586.034	-0.0248
586.375	-0.0202
586.716	-0.016
587.057	-0.0073
587.398	0.0077
587.738	0.0154
588.079	0.0062
588.42	0.0002
588.76	-0.0195
589.101	-0.0171
589.441	-0.0227
589.782	-0.0109
590.122	-0.0004
590.463	0.0027
590.803	-0.0067
591.143	-0.0076
591.483	-0.0126
591.823	-0.0158
592.164	-0.0193
592.504	-0.0078
592.844	-0.0009
593.184	-0.0036
593.523	-0.0132
593.863	-0.0135
594.203	-0.0057
594.543	0.0038
594.883	-0.0042
595.222	0.0011
595.562	0.0134
595.901	0.0122
596.241	-0.0005
596.58	-0.0169
596.92	-0.0222
597.259	-0.0237
597.599	-0.0141
597.938	0.0044
598.277	0.0034
598.616	-0.0104
598.955	-0.0183
599.295	-0.0131
599.634	0.0033
599.973	0.007
600.312	0.0092
600.65	-0.0063
600.989	-0.0064
601.328	0.0007
601.667	0.0226
602.005	0.0059
602.344	-0.0036
602.683	-0.0089
603.021	-0.0023
603.36	-0.0112
603.698	-0.019
604.037	-0.0181
604.375	-0.0122
604.713	-0.0171
605.052	-0.0152
605.39	-0.0135
605.728	-0.0115
606.066	0.0073
606.404	0.0096
606.742	0.0039
607.08	-0.0075
607.418	-0.0172
607.756	-0.0085
608.094	-0.0027
608.431	0.0023
608.769	0.0076
609.107	-0.0096
609.444	-0.0014
609.782	-0.0095
610.12	0.0066
610.457	-0.0015
610.794	-0.0147
611.132	-0.0178
611.469	-0.0192
611.806	-0.0152
612.144	-0.0202
612.481	-0.0101
612.818	0.0053
613.155	-0.0056
613.492	-0.0108
613.829	-0.0159
614.166	-0.0002
614.503	-0.0032
614.84	-0.0068
615.176	-0.0087
615.513	-0.0044
615.85	-0.0025
616.187	0.0002
616.523	-0.0061
616.86	-0.009
617.196	-0.0014
617.533	0.0138
617.869	0.0086
618.205	-0.0052
618.542	-0.0229
618.878	-0.0298
619.214	-0.0192
619.55	-0.011
619.886	-0.0036
620.222	-0.0162
620.558	-0.0098
620.894	0.0026
621.23	0.0031
621.566	-0.0035
621.902	-0.0121
622.238	-0.0164
622.573	0.001
622.909	-0.0069
623.244	-0.001
623.58	-0.0242
623.916	-0.0201
624.251	-0.0051
624.586	0.0184
624.922	0.0193
625.257	-0.0009
625.592	-0.0118
625.927	-0.0113
626.263	-0.0057
626.598	-0.0068
626.933	-0.0027
627.268	-0.0006
627.603	-0.0078
627.938	-0.0184
628.272	-0.0143
628.607	-0.0153
628.942	-0.0072
629.277	-0.014
629.611	-0.0002
629.946	0.0077
630.281	0.0038
630.615	-0.0026
630.949	-0.0174
631.284	-0.0101
631.618	-0.0026
631.953	0.0084
632.287	0.0044
632.621	-0.0048
632.955	-0.0109
633.289	-0.0097
633.623	-0.0082
633.957	-0.0055
634.291	-0.0057
634.625	-0.001
634.959	-0.006
635.293	0.0017
635.627	-0.0003
635.96	0.0016
636.294	-0.0065
636.627	-0.0007
636.961	0.0069
637.294	0.0043
637.628	-0.0064
637.961	-0.0126
638.295	-0.0071
638.628	0.0007
638.961	0.003
639.294	-0.0015
639.628	-0.0071
639.961	-0.0142
640.294	-0.0124
640.627	-0.0076
640.96	-0.0005
641.293	0.0015
641.625	0.0008
641.958	-0.004
642.291	-0.0109
642.624	-0.0125
642.956	-0.0085
643.289	-0.0038
643.621	-0.0026
643.954	-0.0063
644.286	-0.0044
644.619	-0.0095
644.951	-0.0067
645.283	-0.0082
645.616	-0.0008
645.948	0.0006
646.28	0.0048
646.612	-0
646.944	-0.0036
647.276	-0.0081
647.608	-0.0032
647.94	-0
648.272	-0.0018
648.603	-0.0056
648.935	-0.0112
649.267	-0.0094
649.598	-0.0083
649.93	-0.0093
650.261	-0.0068
650.593	-0.001
650.924	0.0133
651.256	0.0114
651.587	0.0052
651.918	-0.0041
652.25	-0.0074
652.581	-0.0112
652.912	-0.0139
653.243	-0.0128
653.574	-0.0101
653.905	-0.003
654.236	-0.005
654.567	-0.0017
654.897	-0.0066
655.228	-0.0042
655.559	-0.0011
655.89	0.0049
656.22	-0.0002
656.551	-0.0085
656.881	-0.0133
657.212	-0.0122
657.542	-0.0072
657.872	-0.0025
658.203	0.0114
658.533	0.1183
658.863	0.0602
659.193	0.0083
659.523	-0.0478
659.853	-0.1005
660.183	-0.0584
660.513	-0.0264
660.843	-0.0134
661.173	-0.008
661.503	-0.0083
661.833	-0.0081
662.162	-0.0105
662.492	-0.0116
662.822	-0.0124
663.151	-0.014
663.481	-0.0074
663.81	0.0005
664.139	0.0054
664.469	0.0032
664.798	-0.0004
665.127	-0.0003
665.456	-0.003
665.785	0.0001
666.114	-0.0013
666.443	0.0003
666.772	-0
667.101	-0
667.43	0.0045
667.759	0.0022
668.088	0.0029
668.416	-0.0065
668.745	-0.0076
669.074	-0.0089
669.402	-0.001
669.731	-0.002
670.059	0.0002
670.388	-0.0059
670.716	-0.0038
671.044	-0.0047
671.372	-0.0009
671.701	0.003
672.029	0.0057
672.357	0.0042
672.685	0.0002
673.013	0.0005
673.341	-0.0033
673.669	-0.0044
673.996	-0.0043
674.324	0.0143
674.652	0.0132
674.98	0.0067
675.307	-0.0061
675.635	-0.0124
675.962	-0.0091
676.29	-0.0146
676.617	-0.0067
676.945	-0.0025
677.272	-0.002
677.599	-0.001
677.926	-0.0024
678.253	-0.0004
678.581	-0.0046
678.908	-0.0033
679.235	0.0032
679.561	-0.0015
679.888	-0.011
680.215	-0.0102
680.542	0.0106
680.869	0.0085
681.195	-0.0024
681.522	-0.0134
681.849	-0.0074
682.175	0.0055
682.502	0.0084
682.828	0.0054
683.154	-0.0017
683.481	-0.0099
683.807	-0.0123
684.133	-0.0003
684.459	0.0046
684.785	0.0111
685.111	-0.0044
685.437	-0.0037
685.763	-0.0113
686.089	-0.0031
686.415	0.0009
686.741	0.0028
687.067	0.0045
687.392	-0.0005
687.718	0.0017
688.043	0.0026
688.369	0.0013
688.694	-0.005
689.02	-0.0122
689.345	-0.0159
689.67	-0.0112
689.996	-0.0071
690.321	-0.0015
690.646	-0.0011
690.971	-0.001
691.296	-0.0008
691.621	-0.002
691.946	0.002
692.271	0.0071
692.596	0.0077
692.921	0.0031
693.245	-0.0051
693.57	-0.0015
693.895	0.0066
694.219	0.0059
694.544	-0.0046
694.868	-0.0113
695.193	-0.01
695.517	0.0003
695.841	-0.0012
696.166	-0.0019
696.49	-0.0063
696.814	-0.0089
697.138	-0.0067
697.462	-0.0006
697.786	0.0033
698.11	0.0083
698.434	0.0017
698.758	-0.0066
699.081	-0.0169
699.405	-0.0059
699.729	0.0207
700.052	0.0166
700.376	0.0029
700.7	-0.0185
701.023	-0.0228
701.346	-0.0169
701.67	-0.0087
701.993	-0.0029
702.316	-0.0022
702.639	-0.0002
702.963	-0.0042
703.286	-0.0106
703.609	-0.0105
703.932	-0.0124
704.255	-0.0098
704.578	-0.0101
704.9	0.0006
705.223	0.0051
705.546	0.0037
705.868	-0.005
706.191	-0.0117
706.514	-0.0175
706.836	-0.015
707.159	-0.004
707.481	-0.003
707.803	-0.0031
708.126	-0.0059
708.448	-0.0016
708.77	0.0017
709.092	0.0032
709.414	0.0083
709.736	0.0087
710.058	0.0022
710.38	-0.0064
710.702	-0.0091
711.024	-0.0105
711.345	-0.0114
711.667	-0.0134
711.989	-0.0119
712.31	-0.0097
712.632	-0.0069
712.953	-0.0034
713.275	0.0002
713.596	0.0014
713.917	-0.0069
714.239	-0.0111
714.56	-0.012
714.881	-0.0033
715.202	-0.0006
715.523	0.0101
715.844	0.0032
716.165	0.0049
716.486	-0.0068
716.807	-0.0018
717.128	-0.0026
717.448	-0.0053
717.769	-0.0114
718.09	-0.0136
718.41	-0.0136
718.731	-0.0111
719.051	-0.0121
719.372	-0.0114
719.692	-0.0048
720.012	-0.0005
720.332	-0.0011
720.653	0.0032
720.973	0.0116
721.293	0.0047
721.613	-0.0057
721.933	-0.0174
722.253	-0.0064
722.573	-0.0112
722.892	-0.013
723.212	-0.0177
723.532	-0.0106
723.851	-0.0064
724.171	-0.0037
724.491	0.0016
724.81	0.0004
725.129	0.0003
725.449	-0.0046
725.768	-0.0019
726.087	-0.0014
726.407	-0.0024
726.726	-0.0043
727.045	-0.008
727.364	-0.0024
727.683	-0.0044
728.002	0.0035
728.321	-0.0011
728.64	-0.0047
728.958	-0.0073
729.277	-0.0077
729.596	-0.0054
729.914	-0.0073
730.233	-0.0057
730.551	0.0022
730.87	-0.0002
731.188	0.0002
731.507	-0.0112
731.825	-0.0093
732.143	-0.0087
732.461	0.0024
732.779	0.0017
733.097	0.0013
733.415	0.0052
733.733	0.0155
734.051	0.0047
734.369	-0.0021
734.687	-0.0212
735.005	-0.0167
735.322	-0.0134
735.64	0.0041
735.957	0.0059
736.275	0.0019
736.592	0.0004
736.91	-0.0039
737.227	-0.0024
737.544	-0.0159
737.862	-0.0087
738.179	-0.009
738.496	-0
738.813	-0.0076
739.13	-0.0187
739.447	-0.0182
739.764	-0.0085
740.081	0.0007
740.398	-0.0051
740.714	-0.0079
741.031	-0.0079
741.348	-0.0043
741.664	0.0025
741.981	0.0106
742.297	0.0021
742.614	-0.0112
742.93	-0.0251
743.246	-0.0169
743.563	-0.0059
743.879	0.0011
744.195	0.0013
744.511	-0.0012
744.827	-0.0011
745.143	0.001
745.459	0.0051
745.775	0.0039
746.091	0.0008
746.406	-0.0015
746.722	-0.0028
747.038	-0.0038
747.353	-0.0029
747.669	-0.0008
747.984	-0.0045
748.3	-0.0013
748.615	-0.0033
748.93	0.0025
749.246	-0.0086
749.561	-0.0072
749.876	-0.0039
750.191	-0.0021
750.506	-0.0025
750.821	-0.0061
751.136	-0.0007
751.451	0.0009
751.766	-0.0052
752.08	-0.0003
752.395	0.0016
752.71	0.0091
753.024	0.0078
753.339	0.0019
753.653	-0.0014
753.968	0.0029
754.282	0.0112
754.596	0.0116
754.911	-0.0006
755.225	0.0012
755.539	-0.0035
755.853	-0.0048
756.167	-0.0127
756.481	-0.0082
756.795	-0.0074
757.109	-0.0057
757.423	-0.0057
757.736	-0.0012
758.05	-0.0052
758.364	0
758.677	-0.0047
758.991	-0.0042
759.304	-0.0009
759.618	0.0046
759.931	0.005
760.244	0.0059
760.558	-0.001
760.871	-0.0032
761.184	-0.0204
761.497	-0.0232
761.81	-0.0207
762.123	-0.0095
762.436	0.0009
762.749	-0.0006
763.062	-0.0002
763.374	0.0019
763.687	-0.0035
764	-0.0049
764.312	-0.0166
764.625	-0.0129
764.937	-0.0144
765.25	-0.0093
765.562	0.0004
765.874	-0.0013
766.186	0.0015
766.499	-0.008
766.811	-0.0028
767.123	0.0064
767.435	0.0071
767.747	0.0032
768.059	-0.0105
768.37	-0.0122
768.682	-0.0153
768.994	-0.0209
769.306	-0.0239
769.617	-0.0165
769.929	-0.0079
770.24	-0.003
770.552	-0.0027
770.863	0.0001
771.174	0.0001
771.486	-0.0043
771.797	-0.0089
772.108	-0.0131
772.419	-0.0158
772.73	-0.0079
773.041	-0.0032
773.352	0.005
773.663	-0.0044
773.974	-0.0021
774.285	-0.0114
774.595	-0.0077
774.906	-0.0115
775.217	-0.0038
775.527	-0.0076
775.838	-0.0032
776.148	-0.0022
776.458	-0.002
776.769	-0.0009
777.079	-0.0033
777.389	0.0004
777.699	-0.0025
778.009	-0.0061
778.319	-0.002
778.629	-0.0081
778.939	-0.0045
779.249	-0.0071
779.559	0.0028
779.869	0.001
780.178	-0.001
780.488	-0.0083
780.798	-0.0105
781.107	-0.0071
781.417	-0.0013
781.726	-0.0001
782.035	-0.0017
782.345	-0.0052
782.654	-0.0021
782.963	0.0009
783.272	0.0005
783.581	0.0038
783.89	0.0063
784.199	0.0003
784.508	-0.0099
784.817	-0.0207
785.126	-0.0163
785.434	-0.0091
785.743	-0.0103
786.052	-0.0061
786.36	-0.01
786.669	-0.0063
786.977	-0.0106
787.285	-0.0084
787.594	-0.007
787.902	-0.0082
788.21	-0.0074
788.518	-0.0021
788.826	0.0025
789.135	-0.0013
789.442	-0.0056
789.75	-0.006
790.058	0
790.366	0.0009
790.674	-0.0004
790.981	0.0005
791.289	0.003
791.597	-0.0006
791.904	-0.0027
792.212	-0.0069
792.519	-0.0064
792.826	-0.0036
793.134	-0.0079
793.441	-0.0027
793.748	-0.0056
794.055	0.0003
794.362	0.0003
794.669	-0.0046
794.976	-0.003
795.283	-0.0128
795.59	-0.0092
795.897	-0.0153
796.203	-0.0083
796.51	0.0057
796.817	0.0134
797.123	0.0004
797.43	-0.0147
797.736	-0.0185
798.042	-0.0152
798.349	-0.0151
798.655	-0.0228
798.961	-0.015
799.267	-0.0096
799.573	-0.0045
799.879	-0.0016
800.185	0.0011
800.491	-0.0029
800.797	-0.0077
801.103	-0.012
801.408	-0.0098
801.714	-0.0087
802.02	-0.0111
802.325	-0.0121
802.631	-0.016
802.936	-0.0068
803.242	-0.0073
803.547	-0.0055
803.852	-0.0078
804.157	-0.0039
804.462	0.0019
804.768	-0.0009
805.073	0.0013
805.378	0.0023
805.682	0.0034
805.987	0.0066
806.292	-0.0005
806.597	-0.0027
806.902	-0.0119
807.206	-0.0162
807.511	-0.0161
807.815	-0.013
808.12	-0.0011
808.424	-0.0004
808.728	0.0018
809.033	0.0041
809.337	-0.0039
809.641	-0.0132
809.945	-0.0127
810.249	0.0023
810.553	0.0063
810.857	0.0011
811.161	-0.0079
811.465	-0.0053
811.768	-0.0114
812.072	-0.0104
812.376	-0.0018
812.679	0.0081
812.983	0.0081
813.286	0.0006
813.59	-0.005
813.893	0.0009
814.196	-0.0046
814.499	-0.0047
814.803	-0.0136
815.106	-0.012
815.409	-0.0147
815.712	-0.0097
816.015	-0.0077
816.318	0.0041
816.62	0.0045
816.923	0.0024
817.226	-0.0106
817.528	-0.0147
817.831	-0.0088
818.133	-0.003
818.436	-0.0009
818.738	-0.0051
819.041	-0.0098
819.343	-0.0081
819.645	0.0029
819.947	0.0146
820.249	0.0122
820.551	0.0068
820.853	-0.0038
821.155	-0.0045
821.457	-0.012
821.759	-0.0101
822.061	-0.0048
822.362	-0.0005
822.664	-0.0004
822.966	0.002
823.267	0.0036
823.569	-0.0032
823.87	-0.0197
824.171	-0.0255
824.473	-0.0217
824.774	-0.0101
825.075	-0.0062
825.376	-0.007
825.677	-0.0072
825.978	-0.0073
826.279	-0.0073
826.58	-0.0093
826.881	-0.0054
827.181	-0.0086
827.482	-0.0065
827.783	-0.01
828.083	0.0034
828.384	0.0042
828.684	-0.007
828.985	-0.0059
829.285	-0.0063
829.585	0.0069
829.885	0.0072
830.185	0.011
830.486	0.0156
830.786	-0.0003
831.086	-0.0109
831.385	-0.0221
831.685	-0.0106
831.985	-0.0033
832.285	-0.0091
832.585	-0.016
832.884	-0.0212
833.184	-0.0232
833.483	-0.0249
833.783	-0.0214
834.082	-0.0083
834.381	-0.0098
834.681	-0.0202
834.98	-0.032
835.279	-0.0283
835.578	-0.0085
835.877	-0.0027
836.176	0.0019
836.475	-0.0129
836.774	-0.0121
837.072	-0.006
837.371	0.0091
837.67	0.0108
837.968	0.0038
838.267	-0.0045
838.565	-0.0074
838.864	-0.009
839.162	-0.0204
839.46	-0.0218
839.759	-0.0222
840.057	-0.0086
840.355	0.002
840.653	0.0039
840.951	0.0089
841.249	-0.0072
841.547	-0.007
841.845	-0.0057
842.142	0.0094
842.44	0.0147
842.738	0.0105
843.035	0.0091
843.333	-0.0044
843.63	-0.0059
843.928	0.0018
844.225	0.005
844.522	-0.003
844.82	-0.02
845.117	-0.0165
845.414	-0.0108
845.711	-0.0152
846.008	-0.0246
846.305	-0.0212
846.602	-0.0112
846.898	-0.0033
847.195	-0.0117
847.492	-0.0122
847.788	-0.0124
848.085	-0.005
848.382	0.0087
848.678	0.0202
848.974	0.0253
849.271	0.0044
849.567	-0.0124
849.863	-0.0319
850.159	-0.0175
850.455	-0.0003
850.751	0.0252
851.047	0.0157
851.343	0.0198
851.639	-0.0073
851.935	0.0151
852.23	-0.0022
852.526	-0.0069
852.822	-0.0127
853.117	-0.0049
853.413	0.0081
853.708	-0.0009
854.003	0.0054
854.299	-0.0143
854.594	-0.0128
854.889	-0.029
855.184	-0.013
855.479	-0.0132
855.774	-0.0042
856.069	0.006
856.364	0.0101
856.659	0.0085
856.954	0.0049
857.248	0.0014
857.543	-0.004
857.837	-0.012
858.132	-0.0093
858.426	-0.0155
858.721	-0.0099
859.015	-0.0126
859.309	0.0183
859.604	0.0156
859.898	0.0204
860.192	0.0011
860.486	0.0059
860.78	-0.0196
861.074	-0.0251
861.367	-0.0281
861.661	0.0196
861.955	0.0241
862.248	0.0272
862.542	-0.0166
862.836	-0.0178
863.129	-0.0159
863.422	-0.0146
863.716	-0.0235
864.009	-0.0329
864.302	-0.0209
864.595	-0.0157
864.889	-0.0084
865.182	-0.0185
865.475	-0.0068
865.767	0.0002
866.06	0.0307
866.353	0.0143
866.646	0.0079
866.938	-0.0128
867.231	-0.0154
867.524	-0.0152
867.816	-0.0298
868.109	-0.0105
868.401	-0.0241
868.693	0.0138
868.985	0.0179
869.278	0.0363
869.57	0.0098
869.862	-0.0056
870.154	-0.0205
870.446	0.007
870.738	0.0042
871.029	0.0068
871.321	-0.0213
871.613	-0.0068
871.904	-0.0176
872.196	-0.011
872.487	-0.0632
872.779	-0.0531
873.07	-0.0397
873.362	0.005
873.653	0.0004
873.944	-0.0077
874.235	-0.0165
874.526	0.0029
874.817	0.0001
875.108	-0.0255
875.399	-0.008
875.69	0.0136
875.981	0.0348
876.271	0.0222
876.562	-0.0232
876.853	-0.0279
877.143	-0.0193
877.434	0.0302
877.724	0.0674
878.014	0.053
878.305	0.0322
878.595	0.0306
878.885	0.0193
879.175	0.0339
879.465	0.0218
879.755	0.0436
880.045	0.023
880.335	0.0129
880.624	-0.0112
880.914	-0.0112
