Data from StonyCreek_071017_1_1a_Absorbance_22-05-28-000.txt Node
Date: Tue Jul 18 22:05:28 MDT 2017
User: Tank Lab
Spectrometer: FLMS01220
Trigger mode: 0
Integration Time (sec): 1.000000E-1
Scans to average: 10
Electric dark correction enabled: true
Nonlinearity correction enabled: false
Boxcar width: 1
XAxis mode: Wavelengths
Number of Pixels in Spectrum: 2048
>>>>>Begin Spectral Data<<<<<
179.47	-0.0555
179.856	-0.0555
180.241	0.1989
180.626	0.2218
181.011	1.9634
181.396	0.8405
181.781	-0
182.166	-0
182.551	-0.0011
182.936	0.0948
183.321	-0
183.706	-0
184.091	0.6776
184.476	0.3693
184.86	-0.5227
185.245	-0
185.63	-0
186.015	-0.2362
186.399	-0.718
186.784	1.1452
187.169	0.514
187.553	0.2236
187.938	0.0426
188.322	0.1384
188.707	0.1528
189.091	0.1384
189.475	0.1269
189.86	0.1178
190.244	0.1599
190.629	0.1683
191.013	0.1905
191.397	0.2399
191.781	0.3021
192.165	0.3906
192.55	0.4182
192.934	0.4753
193.318	0.4912
193.702	0.5401
194.086	0.5386
194.47	0.5764
194.854	0.5717
195.238	0.5698
195.622	0.5681
196.006	0.5567
196.389	0.5572
196.773	0.5361
197.157	0.5361
197.541	0.5373
197.924	0.5331
198.308	0.5032
198.692	0.4932
199.075	0.4848
199.459	0.4905
199.843	0.4832
200.226	0.4697
200.61	0.4577
200.993	0.4442
201.376	0.435
201.76	0.426
202.143	0.4257
202.527	0.4246
202.91	0.4175
203.293	0.4057
203.676	0.3948
204.059	0.3914
204.443	0.3853
204.826	0.3799
205.209	0.37
205.592	0.365
205.975	0.3629
206.358	0.3623
206.741	0.3613
207.124	0.3536
207.507	0.3537
207.89	0.3472
208.273	0.3495
208.655	0.347
209.038	0.348
209.421	0.3435
209.804	0.3416
210.186	0.3385
210.569	0.3374
210.951	0.334
211.334	0.3292
211.717	0.3258
212.099	0.3225
212.482	0.3207
212.864	0.3169
213.246	0.3125
213.629	0.3132
214.011	0.3118
214.393	0.3127
214.776	0.3105
215.158	0.3123
215.54	0.3088
215.922	0.3064
216.305	0.3026
216.687	0.2983
217.069	0.2957
217.451	0.2919
217.833	0.2931
218.215	0.2905
218.597	0.29
218.979	0.2868
219.361	0.2869
219.742	0.2809
220.124	0.2789
220.506	0.2754
220.888	0.2747
221.27	0.2728
221.651	0.2696
222.033	0.2683
222.415	0.2655
222.796	0.2633
223.178	0.2596
223.559	0.2574
223.941	0.2559
224.322	0.2539
224.704	0.2525
225.085	0.2494
225.466	0.2461
225.848	0.2422
226.229	0.2416
226.61	0.2411
226.992	0.2407
227.373	0.2366
227.754	0.2346
228.135	0.2327
228.516	0.2323
228.897	0.2313
229.278	0.2288
229.659	0.2266
230.04	0.2244
230.421	0.22
230.802	0.2167
231.183	0.2145
231.564	0.2174
231.944	0.2169
232.325	0.2158
232.706	0.2136
233.087	0.2124
233.467	0.2122
233.848	0.209
234.229	0.2071
234.609	0.2036
234.99	0.2029
235.37	0.2026
235.751	0.2019
236.131	0.2006
236.511	0.1995
236.892	0.1998
237.272	0.1986
237.652	0.1969
238.033	0.1926
238.413	0.1913
238.793	0.1892
239.173	0.1896
239.553	0.1885
239.933	0.1889
240.313	0.1871
240.694	0.1859
241.074	0.1836
241.453	0.1839
241.833	0.1821
242.213	0.1821
242.593	0.1812
242.973	0.181
243.353	0.1798
243.732	0.1786
244.112	0.1777
244.492	0.1766
244.872	0.1765
245.251	0.1767
245.631	0.1761
246.01	0.1738
246.39	0.1718
246.769	0.1709
247.149	0.1709
247.528	0.1701
247.908	0.1698
248.287	0.1703
248.666	0.1701
249.045	0.1686
249.425	0.1668
249.804	0.165
250.183	0.1661
250.562	0.164
250.941	0.1637
251.32	0.1619
251.699	0.1626
252.078	0.1618
252.457	0.1608
252.836	0.1599
253.215	0.1597
253.594	0.1596
253.973	0.1586
254.352	0.1591
254.731	0.16
255.109	0.1594
255.488	0.1583
255.867	0.1561
256.245	0.1561
256.624	0.1546
257.002	0.1551
257.381	0.153
257.759	0.1538
258.138	0.1524
258.516	0.1535
258.895	0.1524
259.273	0.1516
259.651	0.1505
260.03	0.1509
260.408	0.1507
260.786	0.1505
261.164	0.1486
261.542	0.1473
261.921	0.1468
262.299	0.1454
262.677	0.1449
263.055	0.1443
263.433	0.1447
263.811	0.145
264.188	0.1435
264.566	0.142
264.944	0.1416
265.322	0.142
265.7	0.1433
266.077	0.1422
266.455	0.1399
266.833	0.1388
267.21	0.1369
267.588	0.138
267.966	0.1349
268.343	0.1354
268.721	0.1358
269.098	0.1371
269.475	0.1367
269.853	0.1366
270.23	0.1357
270.607	0.135
270.985	0.1324
271.362	0.1305
271.739	0.1306
272.116	0.129
272.494	0.1295
272.871	0.1279
273.248	0.1283
273.625	0.1274
274.002	0.1258
274.379	0.1258
274.756	0.1255
275.132	0.1253
275.509	0.1232
275.886	0.1231
276.263	0.1243
276.64	0.1238
277.016	0.1218
277.393	0.1201
277.77	0.1195
278.146	0.1202
278.523	0.1186
278.899	0.118
279.276	0.1175
279.652	0.1174
280.029	0.1162
280.405	0.1148
280.782	0.1149
281.158	0.1157
281.534	0.1156
281.91	0.1152
282.287	0.1139
282.663	0.1137
283.039	0.1141
283.415	0.1125
283.791	0.1114
284.167	0.1096
284.543	0.1115
284.919	0.1103
285.295	0.1102
285.671	0.1085
286.047	0.1084
286.423	0.1068
286.799	0.1042
287.174	0.1043
287.55	0.103
287.926	0.1052
288.301	0.1033
288.677	0.1043
289.053	0.1024
289.428	0.1025
289.804	0.1012
290.179	0.1021
290.555	0.1013
290.93	0.1015
291.305	0.0993
291.681	0.0984
292.056	0.0961
292.431	0.0955
292.806	0.0959
293.182	0.0961
293.557	0.097
293.932	0.0956
294.307	0.095
294.682	0.093
295.057	0.0923
295.432	0.0931
295.807	0.094
296.182	0.0947
296.557	0.0929
296.932	0.0915
297.306	0.0901
297.681	0.0895
298.056	0.0905
298.43	0.0911
298.805	0.0904
299.18	0.088
299.554	0.0856
299.929	0.0854
300.303	0.0855
300.678	0.0866
301.052	0.0887
301.427	0.0888
301.801	0.0881
302.175	0.0857
302.55	0.086
302.924	0.0864
303.298	0.0863
303.672	0.0856
304.046	0.0841
304.421	0.0829
304.795	0.082
305.169	0.0811
305.543	0.0802
305.917	0.079
306.291	0.0803
306.664	0.0811
307.038	0.0811
307.412	0.0796
307.786	0.0787
308.16	0.0797
308.533	0.0789
308.907	0.0789
309.281	0.0772
309.654	0.0779
310.028	0.0772
310.401	0.0774
310.775	0.0768
311.148	0.0759
311.522	0.0759
311.895	0.0748
312.268	0.0735
312.642	0.0725
313.015	0.0711
313.388	0.0708
313.761	0.07
314.135	0.0697
314.508	0.0703
314.881	0.0701
315.254	0.0717
315.627	0.0713
316	0.0699
316.373	0.0693
316.746	0.0684
317.118	0.0693
317.491	0.0688
317.864	0.0687
318.237	0.0663
318.61	0.065
318.982	0.0652
319.355	0.0664
319.727	0.0659
320.1	0.066
320.473	0.0674
320.845	0.0667
321.218	0.0661
321.59	0.0646
321.962	0.0643
322.335	0.0635
322.707	0.0616
323.079	0.062
323.452	0.0615
323.824	0.0629
324.196	0.0627
324.568	0.0632
324.94	0.0615
325.312	0.0626
325.684	0.0626
326.056	0.0621
326.428	0.0598
326.8	0.058
327.172	0.0583
327.544	0.0576
327.915	0.0588
328.287	0.0576
328.659	0.0577
329.031	0.0567
329.402	0.0571
329.774	0.057
330.145	0.0554
330.517	0.0541
330.888	0.0531
331.26	0.0525
331.631	0.0532
332.003	0.0527
332.374	0.0535
332.745	0.0525
333.117	0.0516
333.488	0.0524
333.859	0.051
334.23	0.0508
334.601	0.0494
334.972	0.0493
335.343	0.0508
335.714	0.0521
336.085	0.0522
336.456	0.0521
336.827	0.0486
337.198	0.0486
337.569	0.0469
337.94	0.0479
338.31	0.0466
338.681	0.0462
339.052	0.0463
339.422	0.0461
339.793	0.0468
340.164	0.0459
340.534	0.0444
340.905	0.044
341.275	0.0451
341.645	0.0477
342.016	0.0452
342.386	0.0441
342.756	0.0426
343.127	0.0435
343.497	0.0436
343.867	0.0439
344.237	0.0434
344.607	0.0426
344.977	0.0437
345.347	0.0433
345.717	0.0424
346.087	0.0396
346.457	0.041
346.827	0.0402
347.197	0.0413
347.567	0.0396
347.936	0.0421
348.306	0.0416
348.676	0.043
349.046	0.0425
349.415	0.043
349.785	0.0416
350.154	0.0405
350.524	0.0384
350.893	0.0391
351.263	0.0388
351.632	0.0387
352.001	0.0391
352.371	0.0383
352.74	0.0374
353.109	0.0353
353.478	0.0356
353.847	0.0372
354.217	0.0378
354.586	0.0379
354.955	0.0384
355.324	0.0384
355.693	0.0379
356.062	0.0365
356.43	0.0363
356.799	0.0375
357.168	0.0395
357.537	0.0391
357.906	0.0368
358.274	0.034
358.643	0.0329
359.011	0.0335
359.38	0.0355
359.749	0.0344
360.117	0.0331
360.486	0.0304
360.854	0.0323
361.222	0.032
361.591	0.0325
361.959	0.031
362.327	0.0302
362.695	0.0303
363.064	0.0308
363.432	0.0302
363.8	0.0313
364.168	0.0322
364.536	0.0333
364.904	0.0311
365.272	0.0286
365.64	0.0288
366.008	0.0291
366.376	0.0296
366.743	0.0298
367.111	0.0314
367.479	0.0314
367.847	0.0307
368.214	0.0291
368.582	0.0294
368.949	0.0302
369.317	0.0295
369.684	0.0292
370.052	0.0294
370.419	0.0305
370.787	0.0302
371.154	0.0268
371.521	0.0267
371.889	0.0264
372.256	0.0274
372.623	0.0246
372.99	0.0229
373.357	0.0234
373.724	0.0264
374.091	0.0256
374.458	0.0245
374.825	0.0224
375.192	0.0246
375.559	0.0254
375.926	0.026
376.293	0.0259
376.659	0.0243
377.026	0.024
377.393	0.0225
377.759	0.0234
378.126	0.0252
378.492	0.0275
378.859	0.0261
379.225	0.0238
379.592	0.0227
379.958	0.0237
380.325	0.0269
380.691	0.0253
381.057	0.0261
381.423	0.0206
381.79	0.024
382.156	0.024
382.522	0.0259
382.888	0.0226
383.254	0.021
383.62	0.0199
383.986	0.0193
384.352	0.0197
384.718	0.0214
385.084	0.0265
385.449	0.0271
385.815	0.0256
386.181	0.0235
386.547	0.0239
386.912	0.0231
387.278	0.0199
387.643	0.0189
388.009	0.0193
388.374	0.0192
388.74	0.0192
389.105	0.0203
389.471	0.0217
389.836	0.0223
390.201	0.0221
390.566	0.0222
390.932	0.0212
391.297	0.0209
391.662	0.0194
392.027	0.0169
392.392	0.0154
392.757	0.015
393.122	0.0176
393.487	0.0182
393.852	0.0188
394.217	0.0193
394.582	0.021
394.946	0.0235
395.311	0.0232
395.676	0.0218
396.04	0.0171
396.405	0.0154
396.77	0.016
397.134	0.0184
397.499	0.0186
397.863	0.016
398.227	0.0151
398.592	0.0171
398.956	0.0185
399.32	0.0193
399.685	0.0177
400.049	0.02
400.413	0.0209
400.777	0.0199
401.141	0.0214
401.505	0.0211
401.869	0.0197
402.233	0.0147
402.597	0.0134
402.961	0.0135
403.325	0.0142
403.689	0.0149
404.053	0.0159
404.416	0.0131
404.78	0.0124
405.144	0.0121
405.507	0.0159
405.871	0.0157
406.234	0.0168
406.598	0.0149
406.961	0.0137
407.325	0.0131
407.688	0.0126
408.051	0.0139
408.415	0.0136
408.778	0.0144
409.141	0.0143
409.504	0.0152
409.867	0.0144
410.23	0.0131
410.593	0.0124
410.956	0.017
411.319	0.02
411.682	0.0188
412.045	0.016
412.408	0.0119
412.771	0.0132
413.134	0.0128
413.496	0.0145
413.859	0.0126
414.222	0.0126
414.584	0.0118
414.947	0.0125
415.309	0.0113
415.672	0.0123
416.034	0.0138
416.396	0.0152
416.759	0.0162
417.121	0.0155
417.483	0.0137
417.846	0.0142
418.208	0.0149
418.57	0.0163
418.932	0.0138
419.294	0.0144
419.656	0.0144
420.018	0.0162
420.38	0.0154
420.742	0.0136
421.104	0.0127
421.466	0.0094
421.827	0.011
422.189	0.0103
422.551	0.0125
422.912	0.0122
423.274	0.0133
423.636	0.0137
423.997	0.0146
424.359	0.0126
424.72	0.013
425.081	0.0111
425.443	0.0104
425.804	0.0072
426.165	0.0062
426.527	0.0041
426.888	0.0073
427.249	0.0091
427.61	0.0145
427.971	0.0116
428.332	0.0111
428.693	0.0071
429.054	0.0086
429.415	0.0078
429.776	0.0083
430.137	0.0102
430.498	0.0093
430.858	0.0108
431.219	0.0104
431.58	0.0118
431.94	0.0121
432.301	0.0138
432.661	0.0126
433.022	0.0121
433.382	0.0115
433.743	0.0104
434.103	0.0105
434.463	0.0052
434.824	0.0072
435.184	0.0093
435.544	0.0109
435.904	0.0102
436.264	0.0083
436.624	0.0103
436.985	0.0106
437.345	0.0097
437.704	0.0089
438.064	0.0115
438.424	0.0108
438.784	0.0112
439.144	0.0146
439.504	0.0114
439.863	0.008
440.223	-0.0002
440.583	0.0037
440.942	0.0082
441.302	0.0107
441.661	0.0084
442.021	0.0042
442.38	0.0046
442.739	0.007
443.099	0.0086
443.458	0.0082
443.817	0.0096
444.176	0.0114
444.536	0.0107
444.895	0.0105
445.254	0.0095
445.613	0.0122
445.972	0.0087
446.331	0.0102
446.69	0.007
447.049	0.0091
447.407	0.0079
447.766	0.0101
448.125	0.0094
448.484	0.0094
448.842	0.0122
449.201	0.0118
449.559	0.0104
449.918	0.0068
450.276	0.0078
450.635	0.008
450.993	0.0058
451.352	0.0058
451.71	0.0045
452.068	0.0045
452.426	0.0039
452.785	0.0056
453.143	0.0088
453.501	0.009
453.859	0.0096
454.217	0.0085
454.575	0.0081
454.933	0.0079
455.291	0.0081
455.649	0.0065
456.006	0.0061
456.364	0.0073
456.722	0.0045
457.079	0.0058
457.437	0.0046
457.795	0.0116
458.152	0.0121
458.51	0.0122
458.867	0.0097
459.225	0.0105
459.582	0.012
459.939	0.0098
460.297	0.0064
460.654	0.003
461.011	0.0059
461.368	0.0073
461.725	0.0075
462.082	0.0072
462.44	0.0088
462.797	0.0085
463.153	0.0088
463.51	0.005
463.867	0.0078
464.224	0.0028
464.581	0.0017
464.938	-0.0001
465.294	0.0044
465.651	0.0058
466.008	0.0077
466.364	0.0065
466.721	0.0076
467.077	0.0066
467.434	0.0089
467.79	0.0101
468.146	0.0112
468.503	0.015
468.859	0.0089
469.215	0.0021
469.571	-0.0019
469.927	0.0016
470.284	0.0062
470.64	0.0086
470.996	0.0122
471.352	0.0137
471.707	0.0107
472.063	0.0071
472.419	0.0067
472.775	0.0022
473.131	0.0063
473.486	0.0063
473.842	0.0075
474.198	0.0059
474.553	0.0074
474.909	0.0106
475.264	0.0106
475.62	0.0108
475.975	0.0104
476.331	0.0124
476.686	0.0117
477.041	0.0118
477.396	0.0128
477.752	0.0136
478.107	0.0122
478.462	0.0079
478.817	0.0066
479.172	0.0102
479.527	0.0097
479.882	0.0085
480.237	0.0053
480.591	0.0064
480.946	0.0054
481.301	0.006
481.656	0.0036
482.01	0.0062
482.365	0.0043
482.72	0.0089
483.074	0.0077
483.429	0.0062
483.783	0.0024
484.137	0.0054
484.492	0.0078
484.846	0.0083
485.2	0.0005
485.555	-0.0023
485.909	-0.0003
486.263	0.004
486.617	0.0039
486.971	0.0043
487.325	0.0077
487.679	0.0131
488.033	0.0073
488.387	0.0121
488.741	0.0113
489.094	0.0056
489.448	-0.002
489.802	0.0019
490.156	0.0091
490.509	0.0043
490.863	-0.004
491.216	-0.0013
491.57	0.0035
491.923	0.0053
492.277	0.0031
492.63	0.0015
492.983	-0.0004
493.337	-0.0012
493.69	0.0019
494.043	0.0052
494.396	0.0046
494.749	0.0024
495.102	-0.0005
495.455	-0
495.808	-0.0018
496.161	0.0024
496.514	0.0044
496.867	0.007
497.22	0.0054
497.572	0.0054
497.925	0.0068
498.278	0.0043
498.63	0.0081
498.983	0.0064
499.335	0.0075
499.688	-0.001
500.04	-0.003
500.393	-0.0041
500.745	0.0002
501.097	0.004
501.449	0.0039
501.802	0.0041
502.154	0.0042
502.506	0.0033
502.858	0.003
503.21	0.002
503.562	0.0032
503.914	0.0074
504.266	0.009
504.618	0.0067
504.969	0.0069
505.321	0.0005
505.673	0.0028
506.025	-0.0004
506.376	0.0042
506.728	0.0024
507.079	0.0026
507.431	0.001
507.782	0.0053
508.134	0.0053
508.485	0.0028
508.836	-0.0018
509.188	0.0008
509.539	0.0047
509.89	0.0028
510.241	-0.0022
510.592	0.0024
510.943	0.0023
511.294	0.0045
511.645	-0.0036
511.996	-0.0002
512.347	0.0012
512.698	0.0035
513.049	0.0019
513.399	0.0002
513.75	-0.0015
514.101	0.003
514.451	0.0042
514.802	0.0074
515.152	0.005
515.503	0.0067
515.853	0.0037
516.203	0.0012
516.554	-0.0031
516.904	0.0002
517.254	0.0023
517.604	0.0034
517.955	-0.0011
518.305	0.0016
518.655	0.0029
519.005	0.0054
519.355	0.0078
519.705	0.0048
520.055	0.0023
520.404	-0.0014
520.754	0.0037
521.104	0.0086
521.454	0.0095
521.803	0.0077
522.153	0.0037
522.502	-0.0012
522.852	-0.0063
523.201	-0.0042
523.551	-0.0006
523.9	0.0032
524.249	0.0041
524.599	0.0001
524.948	-0
525.297	-0.0004
525.646	0.0015
525.995	0.0015
526.344	0.0006
526.694	0.0018
527.042	-0.001
527.391	-0.0022
527.74	0.0002
528.089	0.0015
528.438	0.0048
528.787	0.0032
529.135	0.0052
529.484	0.0056
529.833	0.0046
530.181	0.0026
530.53	0.0006
530.878	0.0001
531.227	0.0066
531.575	0.0097
531.923	0.0065
532.271	0.0016
532.62	0.0004
532.968	0.0045
533.316	0.0045
533.664	0.0039
534.012	0.0044
534.36	0.006
534.708	0.0014
535.056	0.0002
535.404	-0.0052
535.752	-0.0001
536.1	-0.0019
536.447	-0.0005
536.795	-0.0008
537.143	0.0021
537.49	0.0038
537.838	0.0012
538.185	-0.0015
538.533	-0.0012
538.88	0.0005
539.228	0.0012
539.575	-0.0007
539.922	-0.0007
540.269	0.0035
540.617	0.0022
540.964	-0.0016
541.311	-0.0037
541.658	0.0012
542.005	0.0044
542.352	0.0028
542.699	-0.0004
543.045	-0.0046
543.392	-0.0038
543.739	-0.0025
544.086	0.0012
544.432	-0.0011
544.779	0.0008
545.126	-0.0021
545.472	-0.001
545.819	-0.0035
546.165	-0.0009
546.512	0.0011
546.858	0.006
547.204	0.0066
547.55	0.0042
547.897	0.0006
548.243	-0.0057
548.589	-0.0007
548.935	-0.0032
549.281	0.0023
549.627	-0.0012
549.973	0.0021
550.319	0.0029
550.665	0.0044
551.01	-0.0006
551.356	-0.0067
551.702	-0.0104
552.048	-0.0133
552.393	-0.0052
552.739	-0.0008
553.084	0.0054
553.43	0.001
553.775	-0.0029
554.12	-0.0028
554.466	0.0041
554.811	0.0062
555.156	0.005
555.502	0.0031
555.847	-0.0006
556.192	-0.0012
556.537	-0.0065
556.882	-0.0057
557.227	-0.0088
557.572	-0.0024
557.917	0.0067
558.261	0.004
558.606	-0.0025
558.951	-0.0093
559.295	-0.0095
559.64	-0.0034
559.985	-0.0037
560.329	0.0015
560.674	-0.0033
561.018	-0.0071
561.363	-0.0078
561.707	-0.0061
562.051	-0.003
562.395	0.0042
562.74	0.0019
563.084	0.0022
563.428	-0.001
563.772	0.0006
564.116	-0.0018
564.46	-0.0044
564.804	-0.0001
565.148	-0.0033
565.492	0.0006
565.835	0.0011
566.179	0.0071
566.523	-0.0005
566.866	-0.0081
567.21	-0.0084
567.554	-0.0051
567.897	-0.0021
568.24	-0.0094
568.584	-0.0101
568.927	-0.0082
569.271	-0.0034
569.614	-0.0016
569.957	-0.0011
570.3	0.0018
570.643	0.0024
570.986	-0.0014
571.329	0.0007
571.672	0.0016
572.015	0.0019
572.358	0.0002
572.701	0.0053
573.044	0.0006
573.387	-0.0011
573.729	-0.0013
574.072	0.0055
574.414	0.0067
574.757	0.0094
575.099	-0.0064
575.442	-0.0116
575.784	-0.0022
576.127	0.0103
576.469	0.0106
576.811	-0.0011
577.153	-0.0007
577.496	-0.0006
577.838	0.0018
578.18	-0.0101
578.522	-0.0106
578.864	-0.0148
579.206	0.0081
579.548	0.0079
579.889	-0.0018
580.231	0.0083
580.573	0.0197
580.915	0.0142
581.256	-0.0091
581.598	-0.0271
581.939	-0.0294
582.281	-0.0034
582.622	-0.0045
582.964	0.0009
583.305	-0.0123
583.646	-0.002
583.988	0.0357
584.329	0.0213
584.67	0.006
585.011	-0.0227
585.352	-0.0309
585.693	-0.0166
586.034	-0.0241
586.375	-0.0181
586.716	-0.0131
587.057	-0.0038
587.398	0.0128
587.738	0.0209
588.079	0.0103
588.42	0.0042
588.76	-0.0178
589.101	-0.0132
589.441	-0.0199
589.782	-0.0048
590.122	0.0056
590.463	0.0098
590.803	-0.0029
591.143	-0.0044
591.483	-0.0137
591.823	-0.0165
592.164	-0.0202
592.504	-0.004
592.844	0.002
593.184	-0.0022
593.523	-0.0129
593.863	-0.0095
594.203	-0.004
594.543	0.0073
594.883	-0.0035
595.222	0.0035
595.562	0.0153
595.901	0.0144
596.241	0.0014
596.58	-0.0157
596.92	-0.0212
597.259	-0.023
597.599	-0.0121
597.938	0.0094
598.277	0.009
598.616	-0.0075
598.955	-0.0173
599.295	-0.0133
599.634	0.0024
599.973	0.0066
600.312	0.0124
600.65	-0.0015
600.989	-0.0039
601.328	0.0001
601.667	0.024
602.005	0.0085
602.344	0.0008
602.683	-0.0039
603.021	0.0038
603.36	-0.0073
603.698	-0.0177
604.037	-0.0196
604.375	-0.0148
604.713	-0.0201
605.052	-0.0168
605.39	-0.0151
605.728	-0.0108
606.066	0.0124
606.404	0.0184
606.742	0.0105
607.08	-0.0017
607.418	-0.0158
607.756	-0.0054
608.094	-0.0022
608.431	0.0058
608.769	0.0102
609.107	-0.0078
609.444	-0.0011
609.782	-0.011
610.12	0.0062
610.457	0.0005
610.794	-0.0145
611.132	-0.0179
611.469	-0.0197
611.806	-0.0121
612.144	-0.0187
612.481	-0.0115
612.818	0.0006
613.155	-0.0074
613.492	-0.0097
613.829	-0.0096
614.166	0.0031
614.503	-0.0002
614.84	-0.007
615.176	-0.0078
615.513	-0.0043
615.85	-0.0026
616.187	0.0022
616.523	-0.0053
616.86	-0.0067
617.196	0.0009
617.533	0.0184
617.869	0.0113
618.205	-0.002
618.542	-0.0199
618.878	-0.0257
619.214	-0.0165
619.55	-0.0113
619.886	-0.0049
620.222	-0.017
620.558	-0.0107
620.894	0.0011
621.23	0.0011
621.566	-0.005
621.902	-0.012
622.238	-0.0162
622.573	0.0029
622.909	-0.0042
623.244	-0.0005
623.58	-0.0236
623.916	-0.023
624.251	-0.0075
624.586	0.0141
624.922	0.0178
625.257	-0.0019
625.592	-0.016
625.927	-0.0142
626.263	-0.0108
626.598	-0.0076
626.933	-0.0047
627.268	0.0016
627.603	-0.0055
627.938	-0.016
628.272	-0.0133
628.607	-0.012
628.942	-0.0082
629.277	-0.0137
629.611	-0.0031
629.946	0.0071
630.281	0.0009
630.615	-0.0041
630.949	-0.017
631.284	-0.0091
631.618	-0.0025
631.953	0.0071
632.287	0.0011
632.621	-0.0097
632.955	-0.0137
633.289	-0.0089
633.623	-0.003
633.957	-0.0007
634.291	-0.0049
634.625	-0.0016
634.959	-0.0095
635.293	-0.002
635.627	-0.0026
635.96	0.0013
636.294	-0.0052
636.627	-0.0071
636.961	-0.0001
637.294	-0.0013
637.628	-0.0066
637.961	-0.0151
638.295	-0.0113
638.628	-0.0039
638.961	0.003
639.294	0.003
639.628	-0.0066
639.961	-0.0152
640.294	-0.0152
640.627	-0.0066
640.96	0.0011
641.293	0.0013
641.625	0.0005
641.958	-0.0029
642.291	-0.0066
642.624	-0.0063
642.956	-0.0086
643.289	-0.0048
643.621	-0.0035
643.954	-0.0035
644.286	-0.0047
644.619	-0.0106
644.951	-0.0117
645.283	-0.0116
645.616	-0.0063
645.948	-0.0019
646.28	0.0048
646.612	0.0005
646.944	0.0004
647.276	-0.0092
647.608	-0.0067
647.94	-0.0052
648.272	-0.0033
648.603	-0.0031
648.935	-0.004
649.267	-0.0016
649.598	-0.0031
649.93	-0.005
650.261	-0.0034
650.593	0.0029
650.924	0.0157
651.256	0.0152
651.587	0.007
651.918	-0.0037
652.25	-0.0089
652.581	-0.0061
652.912	-0.0064
653.243	-0.0069
653.574	-0.0039
653.905	-0.0016
654.236	-0.0014
654.567	-0.0031
654.897	-0.0033
655.228	-0.004
655.559	0.0001
655.89	0.0017
656.22	0.0029
656.551	-0.0067
656.881	-0.0105
657.212	-0.0096
657.542	-0.0047
657.872	0.0005
658.203	0.011
658.533	0.1287
658.863	0.0693
659.193	0.0129
659.523	-0.0471
659.853	-0.1048
660.183	-0.0596
660.513	-0.0268
660.843	-0.0133
661.173	-0.0081
661.503	-0.0079
661.833	-0.0063
662.162	-0.0099
662.492	-0.0082
662.822	-0.01
663.151	-0.0093
663.481	-0.0067
663.81	-0.0008
664.139	0.0022
664.469	-0.0016
664.798	-0.0057
665.127	-0.0051
665.456	-0.0023
665.785	0.0008
666.114	-0.0001
666.443	-0.0004
666.772	0.0024
667.101	0.0022
667.43	0.0054
667.759	0.0007
668.088	-0.0025
668.416	-0.0095
668.745	-0.0095
669.074	-0.0091
669.402	-0.0012
669.731	0.0013
670.059	0.0086
670.388	-0.0002
670.716	-0.0006
671.044	-0.0046
671.372	-0.0058
671.701	-0.0066
672.029	-0.0032
672.357	0.0036
672.685	0.0034
673.013	0.0032
673.341	-0.0019
673.669	-0.003
673.996	-0.0018
674.324	0.0138
674.652	0.0078
674.98	0.0032
675.307	-0.0103
675.635	-0.0113
675.962	-0.0086
676.29	-0.0099
676.617	-0.0078
676.945	-0.0088
677.272	-0.0065
677.599	-0.0016
677.926	-0.004
678.253	-0.0036
678.581	-0.0094
678.908	-0.0049
679.235	0.0016
679.561	-0.0016
679.888	-0.0109
680.215	-0.0127
680.542	0.009
680.869	0.0057
681.195	-0.0066
681.522	-0.0166
681.849	-0.0086
682.175	0.0052
682.502	0.007
682.828	0.0065
683.154	-0.0007
683.481	-0.0041
683.807	-0.0077
684.133	0.0038
684.459	-0.001
684.785	0.0047
685.111	-0.0093
685.437	-0.0087
685.763	-0.0167
686.089	-0.0098
686.415	-0.0006
686.741	0.0036
687.067	0.0089
687.392	0.0006
687.718	0.0019
688.043	0.0016
688.369	0.0043
688.694	-0.0015
689.02	-0.0073
689.345	-0.0104
689.67	-0.0057
689.996	-0.006
690.321	-0.0047
690.646	-0.0079
690.971	-0.0032
691.296	-0.0033
691.621	-0.0018
691.946	-0.0027
692.271	0.0026
692.596	-0.0017
692.921	-0.0074
693.245	-0.0162
693.57	-0.0059
693.895	0.005
694.219	0.0075
694.544	-0.0039
694.868	-0.0131
695.193	-0.0103
695.517	-0.0006
695.841	0.0027
696.166	-0.0008
696.49	-0.0047
696.814	-0.0067
697.138	-0.0076
697.462	-0.0041
697.786	0.0008
698.11	0.0126
698.434	0.0063
698.758	-0.0069
699.081	-0.0233
699.405	-0.0159
699.729	0.0164
700.052	0.0183
700.376	0.0063
700.7	-0.0162
701.023	-0.0212
701.346	-0.0135
701.67	-0.0088
701.993	-0.0042
702.316	-0.0034
702.639	-0.0028
702.963	-0.0086
703.286	-0.0149
703.609	-0.0104
703.932	-0.0091
704.255	-0.0067
704.578	-0.0057
704.9	-0.0017
705.223	-0.0001
705.546	-0.0049
705.868	-0.0103
706.191	-0.0141
706.514	-0.0149
706.836	-0.0119
707.159	-0.0046
707.481	-0.0045
707.803	-0.0052
708.126	-0.0073
708.448	-0.0021
708.77	0.003
709.092	0.0047
709.414	0.0089
709.736	0.0104
710.058	0.0057
710.38	-0.0054
710.702	-0.009
711.024	-0.0124
711.345	-0.0136
711.667	-0.0133
711.989	-0.0093
712.31	-0.0065
712.632	-0.0042
712.953	-0.0039
713.275	0.0036
713.596	0.0024
713.917	-0.004
714.239	-0.0123
714.56	-0.017
714.881	-0.0072
715.202	-0.003
715.523	0.0092
715.844	-0.0011
716.165	-0.0009
716.486	-0.0126
716.807	-0.0053
717.128	-0.0055
717.448	-0.0036
717.769	-0.0067
718.09	-0.0056
718.41	-0.0104
718.731	-0.0107
719.051	-0.0137
719.372	-0.0086
719.692	-0.0006
720.012	0.0011
720.332	-0.0007
720.653	-0.0021
720.973	0.0091
721.293	-0.0019
721.613	-0.0091
721.933	-0.0192
722.253	0.0005
722.573	-0.0017
722.892	-0.0052
723.212	-0.0126
723.532	-0.0048
723.851	-0.0024
724.171	-0.0034
724.491	-0.0032
724.81	-0.0047
725.129	-0.0045
725.449	-0.0083
725.768	-0.0068
726.087	-0.0025
726.407	-0.0039
726.726	-0.0076
727.045	-0.0181
727.364	-0.0126
727.683	-0.0078
728.002	0.0053
728.321	0.0028
728.64	-0.0019
728.958	-0.0044
729.277	-0.0059
729.596	-0.0041
729.914	-0.0046
730.233	-0.0018
730.551	0.0025
730.87	-0.0008
731.188	0.002
731.507	-0.0067
731.825	-0.0074
732.143	-0.0123
732.461	-0.0022
732.779	-0.0031
733.097	-0.0065
733.415	-0.0025
733.733	0.0095
734.051	0.0031
734.369	-0.005
734.687	-0.0233
735.005	-0.0183
735.322	-0.0111
735.64	0.0018
735.957	0.0001
736.275	-0.0078
736.592	-0.0068
736.91	-0.0046
737.227	-0.0008
737.544	-0.0141
737.862	-0.0115
738.179	-0.0111
738.496	0.0024
738.813	-0.0061
739.13	-0.0197
739.447	-0.0218
739.764	-0.0083
740.081	-0.0001
740.398	-0.0082
740.714	-0.0149
741.031	-0.0133
741.348	-0.0059
741.664	0.0049
741.981	0.0144
742.297	0.0061
742.614	-0.0106
742.93	-0.0213
743.246	-0.0155
743.563	-0.0033
743.879	-0.0037
744.195	-0.0021
744.511	-0.0068
744.827	-0.0076
745.143	-0.0026
745.459	0.0054
745.775	0.0039
746.091	-0.002
746.406	-0.0066
746.722	-0.0057
747.038	-0.007
747.353	-0.0054
747.669	-0.0019
747.984	-0.0049
748.3	-0.0029
748.615	-0.0027
748.93	0.0027
749.246	-0.0071
749.561	-0.0083
749.876	-0.0053
750.191	-0.0044
750.506	-0.0051
750.821	-0.0133
751.136	-0.0078
751.451	-0.0053
751.766	-0.0034
752.08	0.0002
752.395	-0.0003
752.71	0.0027
753.024	-0.0009
753.339	-0.0015
753.653	-0.0045
753.968	-0
754.282	0.0007
754.596	0.0032
754.911	-0.0038
755.225	0.0038
755.539	0.001
755.853	0.0033
756.167	-0.0019
756.481	0.0009
756.795	-0.0035
757.109	-0.0058
757.423	-0.0077
757.736	-0.0017
758.05	-0.0024
758.364	0.0025
758.677	-0.001
758.991	-0.0013
759.304	0.0014
759.618	0.009
759.931	0.0071
760.244	0.0085
760.558	-0.002
760.871	-0.0054
761.184	-0.0208
761.497	-0.0221
761.81	-0.0174
762.123	-0.005
762.436	0.0032
762.749	-0.0028
763.062	-0.0052
763.374	0.0023
763.687	0.0029
764	0.0035
764.312	-0.0157
764.625	-0.0144
764.937	-0.0186
765.25	-0.0087
765.562	-0.0006
765.874	-0.0019
766.186	-0.0025
766.499	-0.0112
766.811	-0.0075
767.123	0.0029
767.435	0.0101
767.747	0.0066
768.059	-0.0079
768.37	-0.0123
768.682	-0.0151
768.994	-0.0161
769.306	-0.0171
769.617	-0.012
769.929	-0.001
770.24	-0.0008
770.552	0.0017
770.863	-0.0012
771.174	-0.0015
771.486	-0.0045
771.797	-0.0045
772.108	-0.0109
772.419	-0.0168
772.73	-0.0171
773.041	-0.0079
773.352	-0.001
773.663	-0.0064
773.974	-0.0059
774.285	-0.0127
774.595	-0.0077
774.906	-0.0111
775.217	-0.0044
775.527	-0.0061
775.838	-0.0068
776.148	-0.002
776.458	-0.0012
776.769	0.0014
777.079	-0.0038
777.389	-0.0039
777.699	0.0024
778.009	0.0017
778.319	0.0053
778.629	-0.0102
778.939	-0.0092
779.249	-0.0127
779.559	-0.006
779.869	-0.0069
780.178	-0.0052
780.488	-0.0078
780.798	-0.0084
781.107	-0.0082
781.417	-0.0046
781.726	-0.0064
782.035	-0.0047
782.345	-0.0045
782.654	-0.0047
782.963	-0.0065
783.272	-0.0013
783.581	0.0081
783.89	0.0131
784.199	0.0052
784.508	-0.0067
784.817	-0.0188
785.126	-0.0154
785.434	-0.0077
785.743	-0.0064
786.052	-0.0046
786.36	-0.012
786.669	-0.0084
786.977	-0.0114
787.285	-0.0053
787.594	-0.0063
787.902	-0.0071
788.21	-0.0101
788.518	0.0008
788.826	0.0005
789.135	0.0005
789.442	-0.0105
789.75	-0.0094
790.058	-0.007
790.366	-0.0036
790.674	0.0019
790.981	0.0063
791.289	0.0123
791.597	0.0024
791.904	-0.007
792.212	-0.0146
792.519	-0.0131
792.826	-0.0001
793.134	-0.0016
793.441	0.0023
793.748	-0.0039
794.055	-0.0018
794.362	-0.003
794.669	-0.0135
794.976	-0.0112
795.283	-0.0167
795.59	-0.0045
795.897	-0.0118
796.203	-0.0092
796.51	0.0015
796.817	0.0146
797.123	0.0034
797.43	-0.0093
797.736	-0.0176
798.042	-0.0144
798.349	-0.0152
798.655	-0.024
798.961	-0.0134
799.267	-0.0132
799.573	-0.0075
799.879	-0.0107
800.185	-0.0012
800.491	-0.0029
800.797	-0.0061
801.103	-0.0148
801.408	-0.0152
801.714	-0.003
802.02	-0.0061
802.325	-0.0016
802.631	-0.0095
802.936	0
803.242	-0.0016
803.547	-0.0057
803.852	-0.0084
804.157	-0.0094
804.462	-0.0075
804.768	-0.0073
805.073	-0.003
805.378	-0.0028
805.682	-0.0012
805.987	-0.0038
806.292	0.0005
806.597	-0.0017
806.902	0.0001
807.206	-0.0083
807.511	-0.0064
807.815	-0.0077
808.12	0.0015
808.424	-0.0001
808.728	0.0028
809.033	0.0023
809.337	-0.0071
809.641	-0.0178
809.945	-0.0158
810.249	-0.0047
810.553	-0.0036
810.857	-0.0093
811.161	-0.0185
811.465	-0.0152
811.768	-0.0205
812.072	-0.0163
812.376	-0.0133
812.679	0.0017
812.983	-0.0002
813.286	0.0007
813.59	-0.0059
813.893	-0.0026
814.196	-0.0057
814.499	-0.0032
814.803	-0.0051
815.106	-0.0095
815.409	-0.0114
815.712	-0.0035
816.015	0.0029
816.318	0.0021
816.62	0.0038
816.923	-0.0054
817.226	-0.0142
817.528	-0.0206
817.831	-0.0104
818.133	-0.0126
818.436	-0.0114
818.738	-0.0115
819.041	-0.0009
819.343	-0.0055
819.645	-0.0013
819.947	0.0044
820.249	0.0046
820.551	-0.0033
820.853	-0.0153
821.155	-0.0105
821.457	-0.01
821.759	-0.005
822.061	-0.0086
822.362	-0.0107
822.664	-0.0052
822.966	-0.0009
823.267	0.0038
823.569	-0.0053
823.87	-0.0206
824.171	-0.0299
824.473	-0.0355
824.774	-0.0217
825.075	-0.0145
825.376	-0.0132
825.677	-0.0047
825.978	-0.0042
826.279	-0.0023
826.58	-0.0186
826.881	-0.0207
827.181	-0.0208
827.482	-0.0137
827.783	-0.0092
828.083	-0.0021
828.384	-0.012
828.684	-0.0193
828.985	-0.014
829.285	-0.0009
829.585	-0.0011
829.885	-0.0069
830.185	-0.0047
830.486	-0.0002
830.786	-0.009
831.086	-0.0195
831.385	-0.0205
831.685	-0.0121
831.985	-0.0048
832.285	-0.0141
832.585	-0.0114
832.884	-0.0199
833.184	-0.0193
833.483	-0.0306
833.783	-0.0188
834.082	-0.0025
834.381	0.0065
834.681	0.0024
834.98	-0.0022
835.279	-0.0085
835.578	0.0009
835.877	-0.0074
836.176	0.0049
836.475	-0.0093
836.774	-0.0043
837.072	-0.0044
837.371	0.0009
837.67	-0.0057
837.968	-0.0038
838.267	-0.0081
838.565	-0.0069
838.864	-0.018
839.162	-0.026
839.46	-0.0168
839.759	-0.0203
840.057	-0.0116
840.355	-0.0074
840.653	-0.0118
840.951	-0.0146
841.249	-0.0382
841.547	-0.0389
841.845	-0.0323
842.142	-0.0067
842.44	0.007
842.738	0.0117
843.035	0.0091
843.333	-0.0009
843.63	-0.0076
843.928	-0.0069
844.225	-0.003
844.522	-0.0067
844.82	-0.0187
845.117	-0.0172
845.414	-0.016
845.711	-0.0125
846.008	-0.0199
846.305	-0.0222
846.602	-0.0147
846.898	-0.0102
847.195	-0.004
847.492	-0.0079
847.788	-0.0049
848.085	-0.007
848.382	-0.0053
848.678	0.0015
848.974	0.0048
849.271	0.0078
849.567	-0.0047
849.863	-0.0174
850.159	-0.0211
850.455	-0.0108
850.751	-0.0022
851.047	-0.0008
851.343	-0.0072
851.639	-0.022
851.935	-0.0187
852.23	-0.0152
852.526	-0.0103
852.822	-0.008
853.117	-0.0068
853.413	0.005
853.708	-0.0153
854.003	-0.0154
854.299	-0.0369
854.594	-0.0244
854.889	-0.0234
855.184	0.0025
855.479	0.0026
855.774	0.0021
856.069	0.0031
856.364	0.005
856.659	0.0103
856.954	0.0095
857.248	-0.0067
857.543	-0.0292
857.837	-0.0506
858.132	-0.0244
858.426	-0.0176
858.721	-0.0021
859.015	-0.0062
859.309	0.0123
859.604	-0.0037
859.898	-0.019
860.192	-0.0305
860.486	-0.0219
860.78	-0.0329
861.074	-0.027
861.367	-0.0434
861.661	0.0012
861.955	-0.0002
862.248	0.0282
862.542	-0.011
862.836	-0.0158
863.129	-0.0025
863.422	0.0041
863.716	-0.0119
864.009	-0.0464
864.302	-0.0387
864.595	-0.0237
864.889	0.0053
865.182	-0.0162
865.475	-0.0053
865.767	-0.0219
866.06	0.0066
866.353	-0.0218
866.646	-0.0005
866.938	-0.0192
867.231	-0.0206
867.524	-0.0346
867.816	-0.0146
868.109	0.0071
868.401	-0.006
868.693	-0.0198
868.985	-0.0093
869.278	0.0144
869.57	0.0286
869.862	-0.0196
870.154	-0.0329
870.446	-0.0083
870.738	0.0174
871.029	-0.0008
871.321	-0.0243
871.613	-0.0134
871.904	-0.0248
872.196	-0.0227
872.487	-0.0579
872.779	-0.0229
873.07	-0.0114
873.362	0.0164
873.653	-0.0015
873.944	-0.0152
874.235	-0.0202
874.526	0.0156
874.817	0.0008
875.108	-0.0211
875.399	-0.0471
875.69	-0.0223
875.981	-0.0066
876.271	0.006
876.562	-0.031
876.853	-0.0012
877.143	-0.0152
877.434	0.0021
877.724	-0.004
878.014	-0.0014
878.305	0.0099
878.595	0.0029
878.885	-0.0036
879.175	-0.0156
879.465	-0.005
879.755	-0.0045
880.045	-0.0003
880.335	-0.023
880.624	-0.0187
880.914	-0.0187
