Data from 02SS02BI_071717_1a_Absorbance_20-09-29-293.txt Node
Date: Tue Jul 18 20:09:29 MDT 2017
User: Tank Lab
Spectrometer: FLMS01220
Trigger mode: 0
Integration Time (sec): 1.000000E-1
Scans to average: 10
Electric dark correction enabled: true
Nonlinearity correction enabled: false
Boxcar width: 1
XAxis mode: Wavelengths
Number of Pixels in Spectrum: 2048
>>>>>Begin Spectral Data<<<<<
179.47	0.2737
179.856	0.2737
180.241	0.6085
180.626	-0
181.011	-0
181.396	0.1684
181.781	0.3481
182.166	-0
182.551	-0.0915
182.936	-0.1206
183.321	-0.3094
183.706	0.3362
184.091	0.0791
184.476	0.0971
184.86	-0
185.245	-0.2124
185.63	-0
186.015	-0.3464
186.399	-1.0173
186.784	0.6901
187.169	0.2759
187.553	0.0436
187.938	0.1444
188.322	0.122
188.707	0.093
189.091	0.0859
189.475	0.0847
189.86	0.13
190.244	0.1591
190.629	0.1809
191.013	0.2066
191.397	0.2533
191.781	0.3089
192.165	0.3481
192.55	0.3691
192.934	0.4221
193.318	0.4522
193.702	0.4944
194.086	0.51
194.47	0.529
194.854	0.5499
195.238	0.5674
195.622	0.59
196.006	0.5701
196.389	0.5522
196.773	0.5302
197.157	0.5329
197.541	0.5371
197.924	0.5272
198.308	0.5128
198.692	0.5024
199.075	0.4903
199.459	0.4855
199.843	0.4723
200.226	0.4598
200.61	0.4413
200.993	0.4256
201.376	0.4171
201.76	0.4075
202.143	0.4018
202.527	0.3966
202.91	0.3926
203.293	0.3897
203.676	0.3881
204.059	0.3824
204.443	0.3764
204.826	0.3632
205.209	0.3513
205.592	0.3406
205.975	0.3299
206.358	0.3243
206.741	0.3154
207.124	0.3096
207.507	0.3069
207.89	0.3039
208.273	0.3051
208.655	0.2954
209.038	0.2906
209.421	0.2845
209.804	0.2887
210.186	0.2813
210.569	0.2796
210.951	0.2692
211.334	0.2682
211.717	0.2639
212.099	0.2606
212.482	0.2566
212.864	0.2491
213.246	0.2458
213.629	0.2449
214.011	0.246
214.393	0.2465
214.776	0.2424
215.158	0.2371
215.54	0.2308
215.922	0.2263
216.305	0.2254
216.687	0.2255
217.069	0.224
217.451	0.2192
217.833	0.2155
218.215	0.2141
218.597	0.2116
218.979	0.2084
219.361	0.2072
219.742	0.2044
220.124	0.2064
220.506	0.2019
220.888	0.2013
221.27	0.1967
221.651	0.196
222.033	0.1946
222.415	0.1915
222.796	0.1881
223.178	0.1861
223.559	0.1842
223.941	0.1828
224.322	0.1795
224.704	0.1794
225.085	0.1783
225.466	0.1768
225.848	0.1732
226.229	0.1716
226.61	0.172
226.992	0.1719
227.373	0.1683
227.754	0.1638
228.135	0.1617
228.516	0.1623
228.897	0.1606
229.278	0.1591
229.659	0.156
230.04	0.1549
230.421	0.1514
230.802	0.15
231.183	0.1496
231.564	0.1495
231.944	0.1484
232.325	0.1462
232.706	0.1455
233.087	0.1436
233.467	0.1431
233.848	0.1418
234.229	0.1431
234.609	0.1415
234.99	0.14
235.37	0.1377
235.751	0.1371
236.131	0.1358
236.511	0.1348
236.892	0.1336
237.272	0.1316
237.652	0.1311
238.033	0.1293
238.413	0.1287
238.793	0.1258
239.173	0.1253
239.553	0.1252
239.933	0.1259
240.313	0.1248
240.694	0.123
241.074	0.12
241.453	0.1197
241.833	0.1199
242.213	0.1202
242.593	0.1188
242.973	0.1159
243.353	0.1142
243.732	0.1121
244.112	0.1132
244.492	0.1139
244.872	0.1148
245.251	0.1151
245.631	0.114
246.01	0.1118
246.39	0.1096
246.769	0.109
247.149	0.1093
247.528	0.1083
247.908	0.1077
248.287	0.1085
248.666	0.1092
249.045	0.1076
249.425	0.1057
249.804	0.1036
250.183	0.1043
250.562	0.1029
250.941	0.1036
251.32	0.1019
251.699	0.1029
252.078	0.1025
252.457	0.1036
252.836	0.1017
253.215	0.1013
253.594	0.1004
253.973	0.1005
254.352	0.0995
254.731	0.1005
255.109	0.1012
255.488	0.1
255.867	0.0981
256.245	0.0973
256.624	0.0962
257.002	0.096
257.381	0.0958
257.759	0.0971
258.138	0.0967
258.516	0.0965
258.895	0.0965
259.273	0.0966
259.651	0.095
260.03	0.0959
260.408	0.0949
260.786	0.0959
261.164	0.0947
261.542	0.0946
261.921	0.0947
262.299	0.0927
262.677	0.0913
263.055	0.091
263.433	0.0913
263.811	0.093
264.188	0.0909
264.566	0.0905
264.944	0.0893
265.322	0.0901
265.7	0.09
266.077	0.0906
266.455	0.0895
266.833	0.0897
267.21	0.0882
267.588	0.089
267.966	0.0885
268.343	0.088
268.721	0.0879
269.098	0.0874
269.475	0.0877
269.853	0.087
270.23	0.0852
270.607	0.0855
270.985	0.0846
271.362	0.0842
271.739	0.0829
272.116	0.0813
272.494	0.0819
272.871	0.0816
273.248	0.082
273.625	0.0815
274.002	0.0794
274.379	0.0803
274.756	0.0808
275.132	0.0804
275.509	0.0788
275.886	0.0772
276.263	0.0787
276.64	0.0783
277.016	0.0776
277.393	0.0767
277.77	0.0754
278.146	0.0751
278.523	0.0735
278.899	0.0737
279.276	0.0746
279.652	0.0747
280.029	0.0734
280.405	0.0723
280.782	0.0717
281.158	0.0713
281.534	0.07
281.91	0.0698
282.287	0.0695
282.663	0.0709
283.039	0.0717
283.415	0.0711
283.791	0.0694
284.167	0.0676
284.543	0.0694
284.919	0.0696
285.295	0.07
285.671	0.0686
286.047	0.0682
286.423	0.0677
286.799	0.0671
287.174	0.0677
287.55	0.0654
287.926	0.0655
288.301	0.0648
288.677	0.066
289.053	0.0647
289.428	0.0638
289.804	0.0634
290.179	0.0638
290.555	0.0622
290.93	0.0618
291.305	0.0601
291.681	0.0606
292.056	0.0605
292.431	0.0606
292.806	0.0596
293.182	0.0592
293.557	0.0596
293.932	0.0593
294.307	0.057
294.682	0.0547
295.057	0.0536
295.432	0.0543
295.807	0.054
296.182	0.0538
296.557	0.0525
296.932	0.0516
297.306	0.0501
297.681	0.0506
298.056	0.0527
298.43	0.0538
298.805	0.0533
299.18	0.0509
299.554	0.0493
299.929	0.0494
300.303	0.05
300.678	0.0507
301.052	0.0504
301.427	0.0495
301.801	0.0491
302.175	0.0478
302.55	0.048
302.924	0.0472
303.298	0.0475
303.672	0.0468
304.046	0.0471
304.421	0.0459
304.795	0.0463
305.169	0.0451
305.543	0.0454
305.917	0.0437
306.291	0.0446
306.664	0.0445
307.038	0.0443
307.412	0.0434
307.786	0.044
308.16	0.045
308.533	0.0441
308.907	0.0427
309.281	0.043
309.654	0.0436
310.028	0.0433
310.401	0.0421
310.775	0.0421
311.148	0.0419
311.522	0.041
311.895	0.0405
312.268	0.0397
312.642	0.04
313.015	0.0401
313.388	0.0397
313.761	0.0394
314.135	0.0382
314.508	0.0384
314.881	0.0371
315.254	0.038
315.627	0.0397
316	0.0421
316.373	0.0423
316.746	0.0393
317.118	0.0376
317.491	0.0357
317.864	0.0365
318.237	0.0364
318.61	0.0356
318.982	0.0358
319.355	0.036
319.727	0.0357
320.1	0.0365
320.473	0.0384
320.845	0.0385
321.218	0.0379
321.59	0.0368
321.962	0.0363
322.335	0.0355
322.707	0.0331
323.079	0.0349
323.452	0.0342
323.824	0.0363
324.196	0.0351
324.568	0.0371
324.94	0.0363
325.312	0.0383
325.684	0.0372
326.056	0.0347
326.428	0.0319
326.8	0.0301
327.172	0.0313
327.544	0.0306
327.915	0.0313
328.287	0.03
328.659	0.0306
329.031	0.0304
329.402	0.0306
329.774	0.0295
330.145	0.029
330.517	0.0296
330.888	0.0293
331.26	0.0288
331.631	0.0279
332.003	0.0289
332.374	0.0293
332.745	0.0288
333.117	0.0281
333.488	0.0288
333.859	0.0286
334.23	0.0284
334.601	0.0266
334.972	0.027
335.343	0.0272
335.714	0.0281
336.085	0.0276
336.456	0.0267
336.827	0.0249
337.198	0.0252
337.569	0.0255
337.94	0.0271
338.31	0.0254
338.681	0.0251
339.052	0.0235
339.422	0.023
339.793	0.0237
340.164	0.0243
340.534	0.0257
340.905	0.0254
341.275	0.026
341.645	0.0272
342.016	0.0258
342.386	0.0244
342.756	0.0219
343.127	0.0227
343.497	0.0235
343.867	0.0227
344.237	0.0223
344.607	0.0199
344.977	0.021
345.347	0.0209
345.717	0.0213
346.087	0.0204
346.457	0.0209
346.827	0.0204
347.197	0.0209
347.567	0.0175
347.936	0.0207
348.306	0.021
348.676	0.0233
349.046	0.0231
349.415	0.0231
349.785	0.022
350.154	0.0195
350.524	0.0195
350.893	0.0197
351.263	0.0193
351.632	0.0179
352.001	0.0177
352.371	0.0179
352.74	0.0182
353.109	0.0162
353.478	0.017
353.847	0.0175
354.217	0.0195
354.586	0.0187
354.955	0.0186
355.324	0.0181
355.693	0.0186
356.062	0.0186
356.43	0.0194
356.799	0.0202
357.168	0.0197
357.537	0.0185
357.906	0.0172
358.274	0.0173
358.643	0.0164
359.011	0.0176
359.38	0.016
359.749	0.0148
360.117	0.0146
360.486	0.014
360.854	0.0167
361.222	0.0145
361.591	0.0165
361.959	0.0161
362.327	0.0179
362.695	0.0157
363.064	0.0151
363.432	0.0128
363.8	0.0146
364.168	0.0154
364.536	0.0157
364.904	0.0155
365.272	0.0145
365.64	0.0155
366.008	0.0157
366.376	0.0156
366.743	0.0164
367.111	0.0167
367.479	0.0158
367.847	0.0132
368.214	0.012
368.582	0.0132
368.949	0.0149
369.317	0.015
369.684	0.0146
370.052	0.0147
370.419	0.0148
370.787	0.0149
371.154	0.0132
371.521	0.0142
371.889	0.0138
372.256	0.0137
372.623	0.0111
372.99	0.0091
373.357	0.0109
373.724	0.0132
374.091	0.0138
374.458	0.0116
374.825	0.0091
375.192	0.0094
375.559	0.0105
375.926	0.0104
376.293	0.0112
376.659	0.0114
377.026	0.0125
377.393	0.0118
377.759	0.0108
378.126	0.0114
378.492	0.0125
378.859	0.011
379.225	0.0107
379.592	0.0094
379.958	0.0097
380.325	0.0116
380.691	0.0085
381.057	0.0135
381.423	0.0103
381.79	0.0152
382.156	0.0116
382.522	0.0121
382.888	0.0097
383.254	0.0097
383.62	0.0101
383.986	0.0107
384.352	0.0109
384.718	0.0114
385.084	0.0133
385.449	0.012
385.815	0.0099
386.181	0.0086
386.547	0.0085
386.912	0.0077
387.278	0.0042
387.643	0.0047
388.009	0.0045
388.374	0.0066
388.74	0.0067
389.105	0.0093
389.471	0.0098
389.836	0.0098
390.201	0.0091
390.566	0.008
390.932	0.0097
391.297	0.0101
391.662	0.0101
392.027	0.0073
392.392	0.0048
392.757	0.006
393.122	0.007
393.487	0.008
393.852	0.0077
394.217	0.0075
394.582	0.0104
394.946	0.0116
395.311	0.0125
395.676	0.0127
396.04	0.0079
396.405	0.0063
396.77	0.0045
397.134	0.0067
397.499	0.0065
397.863	0.0054
398.227	0.005
398.592	0.0073
398.956	0.0073
399.32	0.0087
399.685	0.0075
400.049	0.009
400.413	0.0093
400.777	0.0086
401.141	0.0117
401.505	0.011
401.869	0.0101
402.233	0.0033
402.597	0.0029
402.961	0.0027
403.325	0.0061
403.689	0.0074
404.053	0.0092
404.416	0.0081
404.78	0.0079
405.144	0.0082
405.507	0.008
405.871	0.0053
406.234	0.0051
406.598	0.0049
406.961	0.0065
407.325	0.0072
407.688	0.0055
408.051	0.0074
408.415	0.0063
408.778	0.0094
409.141	0.0063
409.504	0.0072
409.867	0.0044
410.23	0.0055
410.593	0.0032
410.956	0.0092
411.319	0.0096
411.682	0.0098
412.045	0.0055
412.408	0.0047
412.771	0.0066
413.134	0.0073
413.496	0.0078
413.859	0.0059
414.222	0.0055
414.584	0.0052
414.947	0.0065
415.309	0.0059
415.672	0.0073
416.034	0.0072
416.396	0.0086
416.759	0.0071
417.121	0.0064
417.483	0.0051
417.846	0.0064
418.208	0.0054
418.57	0.0052
418.932	0.004
419.294	0.0064
419.656	0.0066
420.018	0.0083
420.38	0.0082
420.742	0.0074
421.104	0.0071
421.466	0.0047
421.827	0.0043
422.189	0.0015
422.551	0.0032
422.912	0.0037
423.274	0.0078
423.636	0.0076
423.997	0.0114
424.359	0.0102
424.72	0.0104
425.081	0.0069
425.443	0.003
425.804	0.0031
426.165	0.0029
426.527	0.0017
426.888	0.002
427.249	0.004
427.61	0.0105
427.971	0.0066
428.332	0.0056
428.693	0
429.054	0.0006
429.415	0.0002
429.776	0.0024
430.137	0.0047
430.498	0.0058
430.858	0.0069
431.219	0.0093
431.58	0.0069
431.94	0.0081
432.301	0.0084
432.661	0.0075
433.022	0.005
433.382	0.0032
433.743	0.004
434.103	0.0034
434.463	-0.0011
434.824	-0.0004
435.184	0.0034
435.544	0.0053
435.904	0.0051
436.264	0.0029
436.624	0.0045
436.985	0.0058
437.345	0.0052
437.704	0.0035
438.064	0.0034
438.424	0.0012
438.784	0.0033
439.144	0.01
439.504	0.0088
439.863	0.0034
440.223	-0.0055
440.583	-0.0031
440.942	0.0042
441.302	0.0063
441.661	0.0059
442.021	0.0015
442.38	-0.0001
442.739	0.0008
443.099	0.0007
443.458	0.0019
443.817	0.0055
444.176	0.0078
444.536	0.0059
444.895	0.0025
445.254	0.0025
445.613	0.0047
445.972	0.0048
446.331	0.0059
446.69	0.0032
447.049	0.0042
447.407	0.0022
447.766	0.004
448.125	0.0028
448.484	0.0044
448.842	0.0088
449.201	0.0096
449.559	0.0081
449.918	0.0032
450.276	0.0032
450.635	0.0038
450.993	0.0018
451.352	0.0013
451.71	-0.0022
452.068	0.0009
452.426	0.0024
452.785	0.0032
453.143	0.0045
453.501	0.0031
453.859	0.0045
454.217	0.0026
454.575	0.003
454.933	0.0028
455.291	0.0039
455.649	0.0027
456.006	0.0021
456.364	0.0026
456.722	-0.0004
457.079	0.0013
457.437	-0.0004
457.795	0.0034
458.152	0.0025
458.51	0.0026
458.867	0.0018
459.225	0.0023
459.582	0.005
459.939	0.0037
460.297	0.0027
460.654	0.0001
461.011	0.0013
461.368	0.0034
461.725	0.0026
462.082	0.003
462.44	0.0038
462.797	0.0039
463.153	0.0053
463.51	0.0022
463.867	0.0051
464.224	0.0007
464.581	-0.003
464.938	-0.0058
465.294	-0.0025
465.651	0.0014
466.008	0.0021
466.364	0.0019
466.721	0.0049
467.077	0.0055
467.434	0.0067
467.79	0.0058
468.146	0.0055
468.503	0.012
468.859	0.0077
469.215	0.0028
469.571	-0.0063
469.927	-0.0042
470.284	-0.0021
470.64	0.0048
470.996	0.0076
471.352	0.013
471.707	0.0083
472.063	0.0058
472.419	0.0029
472.775	-0.0002
473.131	0.004
473.486	0.005
473.842	0.0073
474.198	0.0035
474.553	0.0031
474.909	0.0058
475.264	0.0082
475.62	0.0084
475.975	0.0054
476.331	0.0036
476.686	0.0022
477.041	0.0031
477.396	0.0082
477.752	0.0098
478.107	0.0108
478.462	0.0033
478.817	0.0018
479.172	0.0023
479.527	0.0036
479.882	0.0032
480.237	0.0006
480.591	0.0023
480.946	0.0013
481.301	0.0024
481.656	-0.0001
482.01	0.0015
482.365	-0.0001
482.72	0.0048
483.074	0.0068
483.429	0.0065
483.783	0.0031
484.137	0.0059
484.492	0.0064
484.846	0.0065
485.2	-0.0003
485.555	-0.0026
485.909	0
486.263	0.0023
486.617	0.0033
486.971	0.0019
487.325	0.0043
487.679	0.0071
488.033	0.0026
488.387	0.0082
488.741	0.0101
489.094	0.0046
489.448	-0.0031
489.802	0.0006
490.156	0.009
490.509	0.0031
490.863	-0.0064
491.216	-0.0043
491.57	0.0004
491.923	0.0033
492.277	-0.0031
492.63	-0.0034
492.983	-0.0042
493.337	-0.0016
493.69	-0.0002
494.043	0.0021
494.396	0.0021
494.749	0.0016
495.102	-0.0009
495.455	-0.0015
495.808	-0.0034
496.161	-0.0024
496.514	-0.0026
496.867	0.0001
497.22	0.0009
497.572	0.001
497.925	0.0012
498.278	-0.0028
498.63	0.0043
498.983	0.006
499.335	0.0097
499.688	-0.0018
500.04	-0.0059
500.393	-0.0086
500.745	-0.0026
501.097	-0.0006
501.449	-0.0016
501.802	-0.002
502.154	-0.0009
502.506	-0.0016
502.858	-0.0014
503.21	-0.0032
503.562	0.0002
503.914	0.0055
504.266	0.0086
504.618	0.0044
504.969	0.001
505.321	-0.0042
505.673	-0.0019
506.025	-0.0018
506.376	0.0024
506.728	0.0012
507.079	0.0011
507.431	-0.0023
507.782	0.0008
508.134	0.0006
508.485	0.0011
508.836	-0.0023
509.188	-0.0022
509.539	0.0001
509.89	0
510.241	-0.002
510.592	0.0028
510.943	0.0011
511.294	0.0017
511.645	-0.0059
511.996	-0.0016
512.347	0.0009
512.698	0.0037
513.049	0.002
513.399	0.0004
513.75	-0.0026
514.101	-0.0009
514.451	-0.0022
514.802	0
515.152	-0.0012
515.503	0.0012
515.853	0.0004
516.203	-0.0007
516.554	-0.0027
516.904	-0.0008
517.254	0.0007
517.604	0.0008
517.955	-0.0036
518.305	-0.0014
518.655	0.0005
519.005	0.0053
519.355	0.0079
519.705	0.0048
520.055	0.0027
520.404	-0.0014
520.754	0.0027
521.104	0.0038
521.454	0.0072
521.803	0.0045
522.153	0.0033
522.502	-0.0029
522.852	-0.0062
523.201	-0.0053
523.551	-0.0025
523.9	0.003
524.249	0.0049
524.599	0.0031
524.948	0.0016
525.297	0.0017
525.646	0.0034
525.995	0.0021
526.344	0.0005
526.694	0.0027
527.042	0.0008
527.391	-0.0017
527.74	-0.0033
528.089	-0.0012
528.438	0.0029
528.787	0.0026
529.135	0.0032
529.484	0.0044
529.833	0.0051
530.181	0.0033
530.53	-0.0022
530.878	-0.0043
531.227	-0.0011
531.575	0.0042
531.923	0.0019
532.271	-0.0013
532.62	-0.0019
532.968	-0.0006
533.316	-0.0003
533.664	-0.0011
534.012	0.002
534.36	0.0049
534.708	0.0013
535.056	-0.0005
535.404	-0.0046
535.752	-0.0009
536.1	-0.0007
536.447	0.0013
536.795	0.0006
537.143	0.0038
537.49	0.0021
537.838	-0.0002
538.185	-0.0028
538.533	-0.0025
538.88	0.0005
539.228	-0.0018
539.575	0.0005
539.922	-0.0021
540.269	0.0032
540.617	0.0004
540.964	0.0001
541.311	-0.0025
541.658	0.0014
542.005	0.0031
542.352	0.0017
542.699	-0.0038
543.045	-0.007
543.392	-0.0023
543.739	-0.001
544.086	0.0007
544.432	-0.0055
544.779	-0.0001
545.126	-0.0017
545.472	-0.0006
545.819	-0.0033
546.165	-0.0005
546.512	0.0013
546.858	0.0053
547.204	0.0027
547.55	0.0003
547.897	-0.0025
548.243	-0.0072
548.589	-0.0034
548.935	-0.0053
549.281	-0.0012
549.627	-0.004
549.973	-0.0026
550.319	0.0001
550.665	0.0026
551.01	0.0002
551.356	-0.0052
551.702	-0.0094
552.048	-0.0154
552.393	-0.009
552.739	-0.0033
553.084	0.0061
553.43	0.0009
553.775	-0.0031
554.12	-0.0048
554.466	0.0042
554.811	0.0048
555.156	0.0057
555.502	0.003
555.847	0.0025
556.192	0.0004
556.537	-0.0041
556.882	-0.0031
557.227	-0.0084
557.572	-0.0047
557.917	0.0045
558.261	0.0064
558.606	0.0009
558.951	-0.0088
559.295	-0.0111
559.64	-0.0067
559.985	-0.0058
560.329	-0.0013
560.674	-0.0002
561.018	-0.0047
561.363	-0.0074
561.707	-0.007
562.051	-0.0033
562.395	0.0079
562.74	0.008
563.084	0.0089
563.428	0.0043
563.772	0.0038
564.116	0.0006
564.46	-0.0019
564.804	0.0003
565.148	-0.0058
565.492	-0.003
565.835	0.0008
566.179	0.0098
566.523	0.0025
566.866	-0.0062
567.21	-0.0055
567.554	-0.0003
567.897	0.0034
568.24	-0.0046
568.584	-0.008
568.927	-0.0079
569.271	-0.0058
569.614	-0.0009
569.957	0.0005
570.3	0.0065
570.643	0.0048
570.986	0.0019
571.329	0.0047
571.672	0.0057
572.015	0.0025
572.358	0.0014
572.701	0.0068
573.044	0.0033
573.387	-0.0005
573.729	0.0012
574.072	0.0069
574.414	0.0094
574.757	0.0108
575.099	-0.0058
575.442	-0.0131
575.784	-0.0029
576.127	0.0121
576.469	0.0113
576.811	-0.0024
577.153	-0.0011
577.496	-0.0012
577.838	0.0014
578.18	-0.0142
578.522	-0.0153
578.864	-0.0193
579.206	0.0066
579.548	0.0104
579.889	-0.0028
580.231	0.0095
580.573	0.0219
580.915	0.0183
581.256	-0.009
581.598	-0.0286
581.939	-0.0313
582.281	0.0001
582.622	-0.0023
582.964	0.0034
583.305	-0.0133
583.646	-0.0021
583.988	0.041
584.329	0.0285
584.67	0.0101
585.011	-0.0226
585.352	-0.0333
585.693	-0.018
586.034	-0.0264
586.375	-0.0205
586.716	-0.0114
587.057	0.0019
587.398	0.0193
587.738	0.0278
588.079	0.0127
588.42	0.0055
588.76	-0.0193
589.101	-0.0156
589.441	-0.0207
589.782	-0.0053
590.122	0.0068
590.463	0.0095
590.803	-0.0046
591.143	-0.0034
591.483	-0.0125
591.823	-0.0147
592.164	-0.0188
592.504	-0.0045
592.844	0.004
593.184	-0.0029
593.523	-0.0146
593.863	-0.0146
594.203	-0.0062
594.543	0.0052
594.883	-0.0024
595.222	0.0059
595.562	0.0249
595.901	0.0208
596.241	0.0068
596.58	-0.0144
596.92	-0.0208
597.259	-0.0272
597.599	-0.0166
597.938	0.0075
598.277	0.0096
598.616	-0.0074
598.955	-0.0177
599.295	-0.0135
599.634	0.0025
599.973	0.0097
600.312	0.014
600.65	-0.0003
600.989	-0.0055
601.328	0.0014
601.667	0.0284
602.005	0.0117
602.344	-0.0002
602.683	-0.0054
603.021	0.0035
603.36	-0.0057
603.698	-0.0186
604.037	-0.0197
604.375	-0.0137
604.713	-0.0173
605.052	-0.0138
605.39	-0.0118
605.728	-0.0079
606.066	0.015
606.404	0.018
606.742	0.0107
607.08	-0.0021
607.418	-0.0146
607.756	-0.0052
608.094	-0.0001
608.431	0.009
608.769	0.0163
609.107	-0.0043
609.444	0.0041
609.782	-0.0093
610.12	0.0103
610.457	0.0011
610.794	-0.0145
611.132	-0.0175
611.469	-0.0168
611.806	-0.0077
612.144	-0.0175
612.481	-0.0089
612.818	0.0059
613.155	-0.0028
613.492	-0.0092
613.829	-0.0128
614.166	0.0021
614.503	0.0028
614.84	-0.0029
615.176	-0.0037
615.513	0.0016
615.85	0.0026
616.187	0.0075
616.523	-0.0026
616.86	-0.0049
617.196	0.0016
617.533	0.0209
617.869	0.013
618.205	-0.0006
618.542	-0.0218
618.878	-0.0269
619.214	-0.0176
619.55	-0.0102
619.886	-0.0035
620.222	-0.0163
620.558	-0.0095
620.894	0.0033
621.23	0.003
621.566	-0.0036
621.902	-0.0091
622.238	-0.0126
622.573	0.0091
622.909	-0.002
623.244	0.0019
623.58	-0.0198
623.916	-0.0186
624.251	-0.0055
624.586	0.0121
624.922	0.014
625.257	-0.0062
625.592	-0.0192
625.927	-0.0128
626.263	-0.0052
626.598	-0.0036
626.933	-0.0004
627.268	0.0085
627.603	0.0018
627.938	-0.0112
628.272	-0.0106
628.607	-0.0097
628.942	-0.0031
629.277	-0.0127
629.611	-0.0023
629.946	0.0081
630.281	0.0022
630.615	-0.0009
630.949	-0.0175
631.284	-0.0097
631.618	-0.0016
631.953	0.0108
632.287	0.0113
632.621	-0.0019
632.955	-0.0059
633.289	-0.0088
633.623	-0.0075
633.957	-0.0079
634.291	-0.0083
634.625	-0.0006
634.959	-0.0064
635.293	0.0014
635.627	-0.002
635.96	0.004
636.294	-0.0018
636.627	-0.0037
636.961	0.0006
637.294	-0.0016
637.628	-0.005
637.961	-0.0086
638.295	-0.0048
638.628	0.0027
638.961	0.0058
639.294	0.0089
639.628	-0.0024
639.961	-0.014
640.294	-0.0187
640.627	-0.0097
640.96	-0.0019
641.293	0.0061
641.625	0.0051
641.958	-0.0005
642.291	-0.0101
642.624	-0.0104
642.956	-0.003
643.289	-0.0014
643.621	-0.0024
643.954	-0.0069
644.286	-0.0032
644.619	-0.0045
644.951	-0.0027
645.283	-0.0063
645.616	-0.0024
645.948	0.004
646.28	0.0082
646.612	0.0078
646.944	0.0017
647.276	-0.0058
647.608	-0.0065
647.94	-0.0056
648.272	-0.0027
648.603	-0.0023
648.935	-0
649.267	0.0027
649.598	-0.0009
649.93	-0.0072
650.261	-0.0066
650.593	0
650.924	0.0144
651.256	0.0133
651.587	0.0078
651.918	0.0005
652.25	-0.0046
652.581	-0.0097
652.912	-0.0146
653.243	-0.0132
653.574	-0.0054
653.905	-0.0006
654.236	-0.0008
654.567	-0.0008
654.897	-0.0031
655.228	-0.0044
655.559	0.0001
655.89	0.0058
656.22	0.0047
656.551	-0.0039
656.881	-0.011
657.212	-0.0057
657.542	-0.0015
657.872	0.0049
658.203	0.0145
658.533	0.145
658.863	0.0869
659.193	0.0191
659.523	-0.0461
659.853	-0.1159
660.183	-0.0634
660.513	-0.0275
660.843	-0.0105
661.173	-0.0041
661.503	-0.0018
661.833	-0.0022
662.162	-0.0056
662.492	-0.0074
662.822	-0.0064
663.151	-0.0047
663.481	-0.0021
663.81	0.0016
664.139	0.0046
664.469	0.0042
664.798	0.0045
665.127	0.0034
665.456	0.0002
665.785	-0.0035
666.114	-0.0045
666.443	-0.0015
666.772	0.0019
667.101	0.0062
667.43	0.0071
667.759	0.0055
668.088	0.0025
668.416	-0.0054
668.745	-0.0049
669.074	-0.0064
669.402	0.004
669.731	0.0042
670.059	0.0046
670.388	0.0001
670.716	0.0013
671.044	0.003
671.372	0.0023
671.701	0.0025
672.029	0.0048
672.357	0.0062
672.685	0.0038
673.013	0.0045
673.341	-0.0005
673.669	-0.002
673.996	-0.001
674.324	0.0186
674.652	0.0176
674.98	0.0132
675.307	-0.0002
675.635	-0.0052
675.962	-0.0055
676.29	-0.0109
676.617	-0.0062
676.945	-0.0064
677.272	-0.0045
677.599	-0.0008
677.926	-0.0007
678.253	0.0018
678.581	-0.0039
678.908	-0.0013
679.235	0.0055
679.561	-0.0003
679.888	-0.0094
680.215	-0.0094
680.542	0.0139
680.869	0.0123
681.195	0.0028
681.522	-0.0059
681.849	0.0024
682.175	0.0097
682.502	0.005
682.828	0.0013
683.154	-0.0048
683.481	-0.005
683.807	-0.0058
684.133	0.0078
684.459	0.008
684.785	0.0128
685.111	-0.0035
685.437	-0.0051
685.763	-0.0137
686.089	-0.0041
686.415	0.004
686.741	0.0078
687.067	0.009
687.392	0.005
687.718	0.0075
688.043	0.0087
688.369	0.0061
688.694	-0.0024
689.02	-0.0106
689.345	-0.015
689.67	-0.0096
689.996	-0.0036
690.321	0.0037
690.646	0.0028
690.971	0.0021
691.296	0.0005
691.621	0.0017
691.946	0.0022
692.271	0.0077
692.596	0.0077
692.921	0.0025
693.245	-0.0083
693.57	-0.0054
693.895	0.0085
694.219	0.0126
694.544	0.005
694.868	-0.0079
695.193	-0.0068
695.517	0
695.841	0.0043
696.166	0.0034
696.49	-0.0009
696.814	-0.0035
697.138	-0.0034
697.462	0.0004
697.786	0.0066
698.11	0.0149
698.434	0.0092
698.758	-0.0046
699.081	-0.0165
699.405	-0.0078
699.729	0.0264
700.052	0.0243
700.376	0.0113
700.7	-0.0121
701.023	-0.0195
701.346	-0.0103
701.67	-0.0045
701.993	0.0012
702.316	0.0009
702.639	0.0028
702.963	0.0007
703.286	-0.0041
703.609	-0.0015
703.932	-0.0023
704.255	-0.0031
704.578	-0.0045
704.9	0.001
705.223	0.0087
705.546	0.0054
705.868	0.0001
706.191	-0.0049
706.514	-0.0052
706.836	-0.0022
707.159	0.003
707.481	0.001
707.803	-0.0005
708.126	-0.0027
708.448	-0.0012
708.77	0.0058
709.092	0.0072
709.414	0.0178
709.736	0.0195
710.058	0.0119
710.38	0.0008
710.702	-0.0055
711.024	-0.01
711.345	-0.0104
711.667	-0.0112
711.989	-0.0072
712.31	-0.0101
712.632	-0.0078
712.953	-0.0056
713.275	0.0022
713.596	0.0043
713.917	-0.0004
714.239	-0.0081
714.56	-0.0133
714.881	-0.007
715.202	0.0024
715.523	0.0172
715.844	0.0114
716.165	0.0133
716.486	-0.0001
716.807	0.0007
717.128	-0.0056
717.448	-0.0053
717.769	-0.0062
718.09	-0.0072
718.41	-0.0126
718.731	-0.0118
719.051	-0.0111
719.372	-0.0068
719.692	-0.0001
720.012	0.0069
720.332	0.0057
720.653	0.0074
720.973	0.011
721.293	0.0038
721.613	-0.0066
721.933	-0.0149
722.253	-0.0038
722.573	-0.0051
722.892	-0.0068
723.212	-0.0102
723.532	-0.0022
723.851	0.0013
724.171	0.0015
724.491	0.0058
724.81	0.0034
725.129	0.0063
725.449	-0.003
725.768	-0.001
726.087	-0.001
726.407	0.003
726.726	-0.001
727.045	-0.0051
727.364	0.0016
727.683	0.0037
728.002	0.0126
728.321	0.0044
728.64	-0.0002
728.958	-0.004
729.277	-0.0032
729.596	-0.0054
729.914	-0.0071
730.233	0.0003
730.551	0.0099
730.87	0.0092
731.188	0.0021
731.507	-0.0056
731.825	-0.011
732.143	-0.0091
732.461	0.0002
732.779	0.0038
733.097	0.0033
733.415	0.005
733.733	0.0156
734.051	0.0038
734.369	-0.0007
734.687	-0.0166
735.005	-0.0079
735.322	-0.006
735.64	0.0036
735.957	0.0057
736.275	0.0002
736.592	0.0026
736.91	-0.0001
737.227	0.0055
737.544	-0.0095
737.862	-0.0094
738.179	-0.0108
738.496	0.007
738.813	0.0018
739.13	-0.0131
739.447	-0.0208
739.764	-0.0059
740.081	0.0041
740.398	-0.0013
740.714	-0.013
741.031	-0.0102
741.348	-0.0039
741.664	0.0032
741.981	0.0135
742.297	0.0031
742.614	-0.0092
742.93	-0.0253
743.246	-0.015
743.563	-0.0049
743.879	0.0008
744.195	-0.0014
744.511	-0.0008
744.827	-0.0029
745.143	0.0037
745.459	0.0096
745.775	0.0054
746.091	-0.0016
746.406	-0.0065
746.722	-0.0059
747.038	-0.004
747.353	-0.0011
747.669	0.008
747.984	0.0061
748.3	0.0087
748.615	0.0044
748.93	0.0082
749.246	-0.0053
749.561	-0.0067
749.876	-0.0079
750.191	-0.002
750.506	-0.0028
750.821	-0.0053
751.136	-0.0055
751.451	-0.0014
751.766	-0.0016
752.08	0.0054
752.395	0.0076
752.71	0.0079
753.024	0.0031
753.339	-0.0018
753.653	-0.0031
753.968	0.0012
754.282	0.0071
754.596	0.0081
754.911	0.0034
755.225	0.0049
755.539	0.0047
755.853	0.0048
756.167	0.0061
756.481	0.0066
756.795	0.0013
757.109	-0.0049
757.423	-0.0065
757.736	-0.0008
758.05	-0.0025
758.364	0.0021
758.677	-0.0007
758.991	0.0025
759.304	0.0069
759.618	0.0173
759.931	0.0101
760.244	0.0129
760.558	0.0012
760.871	-0.0026
761.184	-0.0202
761.497	-0.0225
761.81	-0.0151
762.123	0.0002
762.436	0.0068
762.749	0.0047
763.062	0.0006
763.374	0.0063
763.687	0.0046
764	0.0027
764.312	-0.0118
764.625	-0.0132
764.937	-0.0155
765.25	-0.0099
765.562	0.0031
765.874	0.002
766.186	0.0074
766.499	-0.0039
766.811	0.0021
767.123	0.0117
767.435	0.0136
767.747	0.0119
768.059	-0.0049
768.37	-0.0074
768.682	-0.0136
768.994	-0.0165
769.306	-0.0174
769.617	-0.0096
769.929	-0.0012
770.24	0.0004
770.552	0.0042
770.863	0.0077
771.174	0.0103
771.486	0.0026
771.797	-0.0047
772.108	-0.0151
772.419	-0.0219
772.73	-0.0163
773.041	-0.0075
773.352	0.0019
773.663	-0.0033
773.974	0.0035
774.285	-0.0067
774.595	-0.0037
774.906	-0.0107
775.217	-0.0024
775.527	-0.0034
775.838	-0.0007
776.148	-0.0015
776.458	-0.0014
776.769	-0.0038
777.079	-0.002
777.389	-0.0032
777.699	0.0009
778.009	-0.0013
778.319	-0.0002
778.629	-0.0124
778.939	-0.0114
779.249	-0.0092
779.559	-0.002
779.869	-0.0047
780.178	-0.0083
780.488	-0.0096
780.798	-0.008
781.107	-0.0025
781.417	0.0026
781.726	0.0025
782.035	0.0045
782.345	0.0004
782.654	0.002
782.963	0.0015
783.272	0.007
783.581	0.0144
783.89	0.0157
784.199	0.0065
784.508	-0.007
784.817	-0.018
785.126	-0.0134
785.434	-0.0084
785.743	-0.0079
786.052	-0.0072
786.36	-0.0082
786.669	-0.0019
786.977	-0.0026
787.285	-0.0021
787.594	-0.0037
787.902	-0.0038
788.21	-0.0028
788.518	0.0029
788.826	0.0009
789.135	0.0011
789.442	-0.0105
789.75	-0.0102
790.058	-0.0109
790.366	-0.0052
790.674	-0.0054
790.981	0.0057
791.289	0.0104
791.597	0.0068
791.904	-0.0087
792.212	-0.0145
792.519	-0.0139
792.826	-0.0015
793.134	-0.0002
793.441	0.005
793.748	0.0005
794.055	0.0033
794.362	-0.001
794.669	-0.0081
794.976	-0.012
795.283	-0.0142
795.59	-0.0041
795.897	-0.007
796.203	-0.0027
796.51	0.0129
796.817	0.0236
797.123	0.0121
797.43	-0.006
797.736	-0.0114
798.042	-0.0102
798.349	-0.0095
798.655	-0.0204
798.961	-0.0158
799.267	-0.0098
799.573	-0.0046
799.879	-0.0006
800.185	-0.001
800.491	-0.0018
800.797	-0.0071
801.103	-0.0108
801.408	-0.0089
801.714	-0.0017
802.02	-0.0058
802.325	-0.0017
802.631	-0.0069
802.936	-0.0014
803.242	-0.007
803.547	-0.0055
803.852	-0.0047
804.157	-0.0015
804.462	0.001
804.768	-0.0029
805.073	0.0002
805.378	-0.0057
805.682	0.0021
805.987	0.0006
806.292	0.0037
806.597	0.0007
806.902	-0.0008
807.206	-0.0085
807.511	-0.0122
807.815	-0.0133
808.12	0.0004
808.424	0.0088
808.728	0.0147
809.033	0.0174
809.337	0.004
809.641	-0.0103
809.945	-0.0103
810.249	-0.0005
810.553	0.0086
810.857	0.0005
811.161	-0.0054
811.465	-0.0055
811.768	-0.0068
812.072	-0.0066
812.376	-0.0026
812.679	0.0055
812.983	0.0055
813.286	-0.0003
813.59	0.0004
813.893	0.0037
814.196	0.0038
814.499	-0.001
814.803	0.0006
815.106	0.0005
815.409	-0.0038
815.712	-0.0051
816.015	-0.0036
816.318	0.0031
816.62	0.0033
816.923	-0.0072
817.226	-0.0153
817.528	-0.0164
817.831	-0.0068
818.133	-0.0037
818.436	-0.0013
818.738	-0.0037
819.041	0.0024
819.343	-0.0015
819.645	0.0071
819.947	0.0099
820.249	0.0092
820.551	0.0008
820.853	-0.0085
821.155	-0.0029
821.457	-0.0064
821.759	-0.0081
822.061	-0.0109
822.362	-0.0055
822.664	0.0013
822.966	0.0057
823.267	0.0015
823.569	-0.0043
823.87	-0.0232
824.171	-0.0244
824.473	-0.0292
824.774	-0.0127
825.075	-0.0122
825.376	-0.0087
825.677	-0.0075
825.978	-0.0018
826.279	-0.0024
826.58	-0.0131
826.881	-0.0132
827.181	-0.0178
827.482	-0.0154
827.783	-0.0169
828.083	-0.0085
828.384	-0.0092
828.684	-0.0136
828.985	-0.0084
829.285	0.0012
829.585	0.0086
829.885	0.0047
830.185	0.002
830.486	-0.0031
830.786	-0.0111
831.086	-0.0188
831.385	-0.0208
831.685	-0.0101
831.985	-0.0069
832.285	-0.0026
832.585	-0.0122
832.884	-0.0098
833.184	-0.0158
833.483	-0.0169
833.783	-0.0218
834.082	-0.0125
834.381	-0.0094
834.681	-0.0015
834.98	-0.0059
835.279	-0.0054
835.578	-0.0031
835.877	-0.0089
836.176	-0.0106
836.475	-0.0189
836.774	-0.0119
837.072	-0.0078
837.371	0.0055
837.67	0.0005
837.968	0.0008
838.267	-0.0098
838.565	-0.008
838.864	-0.0093
839.162	-0.0203
839.46	-0.0155
839.759	-0.0157
840.057	0.0001
840.355	-0.0019
840.653	0.0005
840.951	-0.0003
841.249	-0.0053
841.547	-0.0095
841.845	-0.0152
842.142	-0.0074
842.44	0.0023
842.738	0.0113
843.035	0.0128
843.333	0.0016
843.63	-0.0079
843.928	-0.0056
844.225	-0.0062
844.522	-0.009
844.82	-0.0163
845.117	-0.0073
845.414	-0.0002
845.711	0.0007
846.008	-0.0049
846.305	-0.0012
846.602	-0.0021
846.898	-0.0037
847.195	-0.0202
847.492	-0.0171
847.788	-0.0153
848.085	0.0004
848.382	0.0023
848.678	0.0082
848.974	0.0108
849.271	0.0104
849.567	-0.0098
849.863	-0.0189
850.159	-0.0155
850.455	0.0056
850.751	0.0082
851.047	-0.0054
851.343	-0.0154
851.639	-0.0246
851.935	-0.0143
852.23	-0.0117
852.526	-0.0118
852.822	-0.0047
853.117	0.0153
853.413	0.0218
853.708	0.0116
854.003	-0.0017
854.299	-0.0241
854.594	-0.0248
854.889	-0.03
855.184	-0.0196
855.479	-0.0118
855.774	-0.0094
856.069	0.0065
856.364	0.0056
856.659	0.0034
856.954	0.0021
857.248	0.0014
857.543	-0.0058
857.837	-0.0066
858.132	-0.0134
858.426	-0.0157
858.721	-0.0215
859.015	-0.0152
859.309	0.0035
859.604	-0.0034
859.898	-0.0103
860.192	-0.0175
860.486	-0.0193
860.78	-0.0332
861.074	-0.0289
861.367	-0.0226
861.661	0.0042
861.955	0.0046
862.248	0.026
862.542	-0.0053
862.836	-0.0207
863.129	-0.0107
863.422	-0.0111
863.716	-0.0134
864.009	-0.044
864.302	-0.0227
864.595	-0.0106
864.889	0.0067
865.182	-0.0132
865.475	-0.0134
865.767	-0.0303
866.06	0.0033
866.353	-0.0093
866.646	0.0153
866.938	-0.0054
867.231	-0.0046
867.524	-0.0122
867.816	0.0046
868.109	0.0101
868.401	-0.0137
868.693	-0.0159
868.985	-0.0155
869.278	0.0103
869.57	-0.0162
869.862	-0.0304
870.154	-0.0376
870.446	0.0072
870.738	0.0145
871.029	0.0047
871.321	-0.0315
871.613	-0.0117
871.904	-0.0348
872.196	-0.0289
872.487	-0.0855
872.779	-0.0696
873.07	-0.0649
873.362	-0.0178
873.653	0.0035
873.944	0.0041
874.235	-0.0183
874.526	-0.0022
874.817	-0.0068
875.108	0.01
875.399	-0.0059
875.69	0.0246
875.981	0.0217
876.271	0.0126
876.562	-0.0216
876.853	-0.0332
877.143	-0.0452
877.434	-0.0372
877.724	-0.0101
878.014	0.016
878.305	0.0069
878.595	-0.0283
878.885	-0.042
879.175	-0.0211
879.465	0.0071
879.755	0.0147
880.045	-0.0078
880.335	-0.0274
880.624	-0.0466
880.914	-0.0466
