Data from 10SS06MI_072217_1a_Absorbance_19-07-07-668.txt Node
Date: Fri Jul 28 19:07:07 MDT 2017
User: Tank Lab
Spectrometer: FLMS01220
Trigger mode: 0
Integration Time (sec): 1.000000E-1
Scans to average: 10
Electric dark correction enabled: true
Nonlinearity correction enabled: false
Boxcar width: 1
XAxis mode: Wavelengths
Number of Pixels in Spectrum: 2048
>>>>>Begin Spectral Data<<<<<
179.47	0.2454
179.856	0.2454
180.241	0.1681
180.626	-1.0765
181.011	0.2607
181.396	0.0125
181.781	-0.291
182.166	0.5105
182.551	-0
182.936	-0
183.321	-0
183.706	-0
184.091	-0.1495
184.476	0.0346
184.86	-0
185.245	-0
185.63	-0
186.015	-0
186.399	1.0055
186.784	-0
187.169	-0
187.553	-0
187.938	-0
188.322	0.0597
188.707	0.1042
189.091	0.1784
189.475	0.2386
189.86	0.2511
190.244	0.2354
190.629	0.2394
191.013	0.3017
191.397	0.3587
191.781	0.4258
192.165	0.4864
192.55	0.5201
192.934	0.547
193.318	0.6032
193.702	0.6823
194.086	0.7084
194.47	0.6825
194.854	0.706
195.238	0.7084
195.622	0.7448
196.006	0.7325
196.389	0.7291
196.773	0.7239
197.157	0.7483
197.541	0.7949
197.924	0.7873
198.308	0.7604
198.692	0.7405
199.075	0.7452
199.459	0.7565
199.843	0.7474
200.226	0.7505
200.61	0.7581
200.993	0.7658
201.376	0.7488
201.76	0.7294
202.143	0.7065
202.527	0.6996
202.91	0.6852
203.293	0.6967
203.676	0.6938
204.059	0.6976
204.443	0.6971
204.826	0.6971
205.209	0.7018
205.592	0.6935
205.975	0.6972
206.358	0.6883
206.741	0.6806
207.124	0.6823
207.507	0.6792
207.89	0.6804
208.273	0.675
208.655	0.6699
209.038	0.6668
209.421	0.6585
209.804	0.662
210.186	0.66
210.569	0.6574
210.951	0.6503
211.334	0.6475
211.717	0.645
212.099	0.6428
212.482	0.6409
212.864	0.6393
213.246	0.6401
213.629	0.6379
214.011	0.6334
214.393	0.6244
214.776	0.6193
215.158	0.6189
215.54	0.6174
215.922	0.6157
216.305	0.6076
216.687	0.6069
217.069	0.5998
217.451	0.5977
217.833	0.5894
218.215	0.5853
218.597	0.5797
218.979	0.5778
219.361	0.576
219.742	0.5727
220.124	0.5695
220.506	0.5661
220.888	0.5589
221.27	0.5566
221.651	0.5531
222.033	0.5514
222.415	0.5448
222.796	0.5392
223.178	0.537
223.559	0.5332
223.941	0.5269
224.322	0.5206
224.704	0.5153
225.085	0.5161
225.466	0.5151
225.848	0.5139
226.229	0.5088
226.61	0.5066
226.992	0.5025
227.373	0.5002
227.754	0.4971
228.135	0.4955
228.516	0.493
228.897	0.4862
229.278	0.4847
229.659	0.4797
230.04	0.479
230.421	0.4722
230.802	0.4703
231.183	0.4683
231.564	0.4672
231.944	0.4631
232.325	0.4573
232.706	0.4515
233.087	0.4498
233.467	0.4494
233.848	0.4499
234.229	0.4483
234.609	0.4474
234.99	0.4447
235.37	0.4406
235.751	0.4359
236.131	0.4341
236.511	0.4341
236.892	0.4315
237.272	0.4279
237.652	0.4246
238.033	0.4242
238.413	0.4229
238.793	0.4217
239.173	0.4186
239.553	0.4175
239.933	0.4144
240.313	0.4108
240.694	0.4053
241.074	0.401
241.453	0.4004
241.833	0.3987
242.213	0.3996
242.593	0.3966
242.973	0.3957
243.353	0.3919
243.732	0.3918
244.112	0.3912
244.492	0.39
244.872	0.3878
245.251	0.387
245.631	0.3853
246.01	0.3839
246.39	0.382
246.769	0.3808
247.149	0.38
247.528	0.3787
247.908	0.3762
248.287	0.3743
248.666	0.3712
249.045	0.3725
249.425	0.3714
249.804	0.3703
250.183	0.368
250.562	0.3663
250.941	0.3653
251.32	0.3646
251.699	0.3629
252.078	0.3608
252.457	0.3586
252.836	0.3576
253.215	0.3586
253.594	0.3586
253.973	0.3566
254.352	0.3543
254.731	0.3515
255.109	0.3504
255.488	0.3501
255.867	0.3492
256.245	0.3477
256.624	0.3469
257.002	0.346
257.381	0.3457
257.759	0.3429
258.138	0.3421
258.516	0.3421
258.895	0.342
259.273	0.3417
259.651	0.3391
260.03	0.3379
260.408	0.3365
260.786	0.3358
261.164	0.3358
261.542	0.334
261.921	0.3314
262.299	0.3308
262.677	0.3291
263.055	0.3296
263.433	0.3259
263.811	0.3251
264.188	0.3229
264.566	0.3212
264.944	0.3191
265.322	0.3188
265.7	0.3189
266.077	0.3169
266.455	0.3151
266.833	0.3141
267.21	0.3142
267.588	0.3126
267.966	0.3113
268.343	0.31
268.721	0.3101
269.098	0.3073
269.475	0.3072
269.853	0.3054
270.23	0.3055
270.607	0.3018
270.985	0.3018
271.362	0.2998
271.739	0.299
272.116	0.2967
272.494	0.2963
272.871	0.2957
273.248	0.2947
273.625	0.2916
274.002	0.2902
274.379	0.2869
274.756	0.2861
275.132	0.2833
275.509	0.2835
275.886	0.2821
276.263	0.2818
276.64	0.2802
277.016	0.2799
277.393	0.2801
277.77	0.278
278.146	0.2773
278.523	0.2751
278.899	0.2747
279.276	0.2716
279.652	0.2705
280.029	0.2698
280.405	0.2698
280.782	0.2683
281.158	0.2669
281.534	0.2641
281.91	0.2627
282.287	0.2615
282.663	0.2628
283.039	0.262
283.415	0.2598
283.791	0.2562
284.167	0.2536
284.543	0.2529
284.919	0.2512
285.295	0.2512
285.671	0.2492
286.047	0.2477
286.423	0.2442
286.799	0.2452
287.174	0.2453
287.55	0.245
287.926	0.243
288.301	0.2438
288.677	0.2429
289.053	0.2413
289.428	0.2378
289.804	0.2364
290.179	0.2352
290.555	0.2346
290.93	0.2334
291.305	0.2319
291.681	0.2326
292.056	0.2328
292.431	0.2318
292.806	0.2297
293.182	0.2297
293.557	0.2283
293.932	0.2264
294.307	0.2234
294.682	0.2224
295.057	0.2215
295.432	0.2208
295.807	0.2192
296.182	0.2183
296.557	0.2184
296.932	0.2188
297.306	0.2189
297.681	0.2158
298.056	0.213
298.43	0.2111
298.805	0.2094
299.18	0.2097
299.554	0.2081
299.929	0.2096
300.303	0.2084
300.678	0.2064
301.052	0.2063
301.427	0.2049
301.801	0.2049
302.175	0.2013
302.55	0.2009
302.924	0.2003
303.298	0.1997
303.672	0.2007
304.046	0.199
304.421	0.1987
304.795	0.1957
305.169	0.1958
305.543	0.1937
305.917	0.1922
306.291	0.19
306.664	0.1904
307.038	0.1895
307.412	0.1892
307.786	0.1875
308.16	0.187
308.533	0.1857
308.907	0.1848
309.281	0.1848
309.654	0.1835
310.028	0.1838
310.401	0.1832
310.775	0.1829
311.148	0.1827
311.522	0.1805
311.895	0.1779
312.268	0.1772
312.642	0.1771
313.015	0.1768
313.388	0.1742
313.761	0.1734
314.135	0.174
314.508	0.1733
314.881	0.1712
315.254	0.1686
315.627	0.1678
316	0.1682
316.373	0.1682
316.746	0.168
317.118	0.1681
317.491	0.169
317.864	0.169
318.237	0.1669
318.61	0.1651
318.982	0.1623
319.355	0.1602
319.727	0.1602
320.1	0.1594
320.473	0.1598
320.845	0.1584
321.218	0.1583
321.59	0.1575
321.962	0.1563
322.335	0.1549
322.707	0.1543
323.079	0.1531
323.452	0.1539
323.824	0.1542
324.196	0.1546
324.568	0.1522
324.94	0.1493
325.312	0.1496
325.684	0.1491
326.056	0.1473
326.428	0.1437
326.8	0.1421
327.172	0.1438
327.544	0.1418
327.915	0.1407
328.287	0.1409
328.659	0.1431
329.031	0.1451
329.402	0.1427
329.774	0.1407
330.145	0.1385
330.517	0.1379
330.888	0.1375
331.26	0.1379
331.631	0.1383
332.003	0.1383
332.374	0.1374
332.745	0.1362
333.117	0.136
333.488	0.1344
333.859	0.1341
334.23	0.1302
334.601	0.1303
334.972	0.131
335.343	0.1332
335.714	0.1313
336.085	0.1286
336.456	0.1264
336.827	0.1255
337.198	0.1257
337.569	0.1251
337.94	0.1246
338.31	0.1236
338.681	0.1232
339.052	0.1234
339.422	0.1226
339.793	0.122
340.164	0.1208
340.534	0.1208
340.905	0.1193
341.275	0.1194
341.645	0.1174
342.016	0.1182
342.386	0.1183
342.756	0.118
343.127	0.1163
343.497	0.114
343.867	0.1154
344.237	0.1176
344.607	0.1167
344.977	0.1143
345.347	0.1129
345.717	0.1132
346.087	0.1122
346.457	0.112
346.827	0.1107
347.197	0.1106
347.567	0.109
347.936	0.1092
348.306	0.1103
348.676	0.1107
349.046	0.111
349.415	0.1097
349.785	0.1102
350.154	0.1086
350.524	0.1088
350.893	0.1063
351.263	0.1065
351.632	0.1045
352.001	0.1029
352.371	0.1032
352.74	0.1022
353.109	0.1032
353.478	0.1018
353.847	0.1029
354.217	0.1034
354.586	0.1023
354.955	0.1023
355.324	0.101
355.693	0.1011
356.062	0.0997
356.43	0.099
356.799	0.0961
357.168	0.0952
357.537	0.0941
357.906	0.0967
358.274	0.0955
358.643	0.0958
359.011	0.0947
359.38	0.0936
359.749	0.0921
360.117	0.091
360.486	0.0917
360.854	0.0919
361.222	0.0902
361.591	0.0898
361.959	0.0874
362.327	0.0899
362.695	0.0892
363.064	0.0912
363.432	0.0889
363.8	0.0895
364.168	0.0876
364.536	0.0885
364.904	0.0868
365.272	0.0862
365.64	0.0848
366.008	0.0859
366.376	0.0852
366.743	0.0832
367.111	0.0811
367.479	0.0817
367.847	0.0836
368.214	0.0848
368.582	0.0847
368.949	0.0848
369.317	0.0842
369.684	0.0824
370.052	0.0802
370.419	0.0795
370.787	0.0809
371.154	0.0821
371.521	0.0825
371.889	0.0821
372.256	0.0805
372.623	0.0792
372.99	0.0786
373.357	0.0793
373.724	0.0794
374.091	0.0798
374.458	0.0778
374.825	0.0769
375.192	0.0741
375.559	0.0734
375.926	0.0727
376.293	0.0734
376.659	0.0742
377.026	0.0747
377.393	0.0753
377.759	0.0746
378.126	0.0742
378.492	0.0725
378.859	0.073
379.225	0.0715
379.592	0.0722
379.958	0.0701
380.325	0.0695
380.691	0.0668
381.057	0.067
381.423	0.0689
381.79	0.0706
382.156	0.0679
382.522	0.0671
382.888	0.0677
383.254	0.0702
383.62	0.0691
383.986	0.0686
384.352	0.0673
384.718	0.0672
385.084	0.068
385.449	0.0687
385.815	0.0686
386.181	0.0672
386.547	0.067
386.912	0.0661
387.278	0.0639
387.643	0.0635
388.009	0.0642
388.374	0.0633
388.74	0.0654
389.105	0.0625
389.471	0.0645
389.836	0.0613
390.201	0.0634
390.566	0.0626
390.932	0.0646
391.297	0.0624
391.662	0.0622
392.027	0.0598
392.392	0.0588
392.757	0.0572
393.122	0.0565
393.487	0.0588
393.852	0.0604
394.217	0.0618
394.582	0.061
394.946	0.0599
395.311	0.0595
395.676	0.0567
396.04	0.0569
396.405	0.0555
396.77	0.0582
397.134	0.0562
397.499	0.058
397.863	0.0559
398.227	0.0578
398.592	0.054
398.956	0.055
399.32	0.0528
399.685	0.0554
400.049	0.0542
400.413	0.0554
400.777	0.0535
401.141	0.0542
401.505	0.0533
401.869	0.054
402.233	0.0531
402.597	0.0515
402.961	0.0517
403.325	0.0544
403.689	0.0548
404.053	0.0567
404.416	0.0515
404.78	0.0528
405.144	0.0486
405.507	0.0539
405.871	0.0518
406.234	0.0533
406.598	0.0496
406.961	0.0503
407.325	0.0492
407.688	0.0499
408.051	0.0505
408.415	0.0523
408.778	0.0509
409.141	0.0478
409.504	0.0476
409.867	0.0467
410.23	0.0487
410.593	0.046
410.956	0.046
411.319	0.045
411.682	0.0432
412.045	0.0444
412.408	0.0423
412.771	0.0441
413.134	0.0432
413.496	0.0452
413.859	0.0453
414.222	0.0446
414.584	0.0461
414.947	0.0463
415.309	0.0456
415.672	0.0449
416.034	0.0453
416.396	0.046
416.759	0.0451
417.121	0.0454
417.483	0.0457
417.846	0.0433
418.208	0.0423
418.57	0.0431
418.932	0.043
419.294	0.0429
419.656	0.0412
420.018	0.0426
420.38	0.042
420.742	0.0414
421.104	0.0432
421.466	0.0419
421.827	0.0413
422.189	0.0391
422.551	0.0395
422.912	0.0404
423.274	0.04
423.636	0.0406
423.997	0.0398
424.359	0.0406
424.72	0.0404
425.081	0.043
425.443	0.0437
425.804	0.0437
426.165	0.0425
426.527	0.042
426.888	0.0408
427.249	0.0398
427.61	0.0399
427.971	0.0388
428.332	0.0366
428.693	0.0356
429.054	0.0372
429.415	0.0388
429.776	0.0369
430.137	0.0354
430.498	0.0352
430.858	0.039
431.219	0.0378
431.58	0.0379
431.94	0.0357
432.301	0.0378
432.661	0.0361
433.022	0.0358
433.382	0.0354
433.743	0.0394
434.103	0.0399
434.463	0.0402
434.824	0.0381
435.184	0.0378
435.544	0.0401
435.904	0.0402
436.264	0.0402
436.624	0.0387
436.985	0.0365
437.345	0.0368
437.704	0.0361
438.064	0.0361
438.424	0.0343
438.784	0.0314
439.144	0.03
439.504	0.0309
439.863	0.0334
440.223	0.0367
440.583	0.0374
440.942	0.037
441.302	0.0351
441.661	0.0328
442.021	0.0339
442.38	0.0339
442.739	0.0353
443.099	0.0321
443.458	0.0345
443.817	0.0348
444.176	0.0372
444.536	0.0338
444.895	0.0323
445.254	0.0294
445.613	0.0296
445.972	0.0304
446.331	0.0325
446.69	0.033
447.049	0.0299
447.407	0.0301
447.766	0.03
448.125	0.0344
448.484	0.0337
448.842	0.0326
449.201	0.0312
449.559	0.0281
449.918	0.0306
450.276	0.0317
450.635	0.0355
450.993	0.0329
451.352	0.0336
451.71	0.0326
452.068	0.0321
452.426	0.0284
452.785	0.03
453.143	0.0305
453.501	0.031
453.859	0.0278
454.217	0.0295
454.575	0.0272
454.933	0.0277
455.291	0.0277
455.649	0.0304
456.006	0.0304
456.364	0.0287
456.722	0.0296
457.079	0.0291
457.437	0.0313
457.795	0.0325
458.152	0.0343
458.51	0.0337
458.867	0.0327
459.225	0.0328
459.582	0.0303
459.939	0.028
460.297	0.0256
460.654	0.0276
461.011	0.0306
461.368	0.0321
461.725	0.0297
462.082	0.0286
462.44	0.0262
462.797	0.0264
463.153	0.0262
463.51	0.0266
463.867	0.0279
464.224	0.0286
464.581	0.0311
464.938	0.0323
465.294	0.0315
465.651	0.0315
466.008	0.0258
466.364	0.026
466.721	0.0241
467.077	0.0246
467.434	0.024
467.79	0.0259
468.146	0.029
468.503	0.0277
468.859	0.0268
469.215	0.0258
469.571	0.0265
469.927	0.0288
470.284	0.0284
470.64	0.0304
470.996	0.028
471.352	0.0285
471.707	0.0262
472.063	0.0272
472.419	0.0299
472.775	0.0327
473.131	0.0312
473.486	0.0274
473.842	0.0251
474.198	0.0254
474.553	0.0277
474.909	0.0297
475.264	0.0291
475.62	0.0299
475.975	0.0266
476.331	0.0278
476.686	0.0257
477.041	0.0274
477.396	0.0241
477.752	0.0224
478.107	0.0215
478.462	0.0216
478.817	0.0221
479.172	0.0222
479.527	0.0233
479.882	0.0243
480.237	0.025
480.591	0.0242
480.946	0.025
481.301	0.0243
481.656	0.0242
482.01	0.0217
482.365	0.023
482.72	0.0239
483.074	0.024
483.429	0.0221
483.783	0.0227
484.137	0.0232
484.492	0.0223
484.846	0.0209
485.2	0.0224
485.555	0.0253
485.909	0.0261
486.263	0.025
486.617	0.0232
486.971	0.0226
487.325	0.022
487.679	0.0208
488.033	0.0233
488.387	0.0243
488.741	0.0233
489.094	0.0227
489.448	0.0221
489.802	0.0232
490.156	0.0204
490.509	0.0216
490.863	0.0205
491.216	0.0215
491.57	0.0192
491.923	0.0199
492.277	0.0197
492.63	0.0203
492.983	0.0208
493.337	0.0196
493.69	0.0198
494.043	0.0185
494.396	0.0192
494.749	0.0179
495.102	0.018
495.455	0.0186
495.808	0.0217
496.161	0.0232
496.514	0.0237
496.867	0.0193
497.22	0.0185
497.572	0.0168
497.925	0.0208
498.278	0.0205
498.63	0.0195
498.983	0.0155
499.335	0.0151
499.688	0.0166
500.04	0.0169
500.393	0.0173
500.745	0.0157
501.097	0.0174
501.449	0.0178
501.802	0.0176
502.154	0.017
502.506	0.0171
502.858	0.0166
503.21	0.0156
503.562	0.0138
503.914	0.015
504.266	0.0172
504.618	0.0178
504.969	0.0202
505.321	0.0195
505.673	0.0186
506.025	0.0161
506.376	0.0155
506.728	0.019
507.079	0.0188
507.431	0.0191
507.782	0.017
508.134	0.0175
508.485	0.0182
508.836	0.0208
509.188	0.0199
509.539	0.0185
509.89	0.0176
510.241	0.0178
510.592	0.0178
510.943	0.0153
511.294	0.0165
511.645	0.0161
511.996	0.0175
512.347	0.0157
512.698	0.0152
513.049	0.0161
513.399	0.0188
513.75	0.0202
514.101	0.0186
514.451	0.0183
514.802	0.0176
515.152	0.0175
515.503	0.0188
515.853	0.0205
516.203	0.0206
516.554	0.0174
516.904	0.0157
517.254	0.015
517.604	0.0148
517.955	0.0152
518.305	0.013
518.655	0.0113
519.005	0.0112
519.355	0.0131
519.705	0.0155
520.055	0.0149
520.404	0.0123
520.754	0.011
521.104	0.0113
521.454	0.0141
521.803	0.0161
522.153	0.0179
522.502	0.0176
522.852	0.0175
523.201	0.0169
523.551	0.0159
523.9	0.0131
524.249	0.0111
524.599	0.0145
524.948	0.0179
525.297	0.0192
525.646	0.0163
525.995	0.0156
526.344	0.0161
526.694	0.0149
527.042	0.0119
527.391	0.0082
527.74	0.0087
528.089	0.0118
528.438	0.0143
528.787	0.0153
529.135	0.0114
529.484	0.0089
529.833	0.0102
530.181	0.0107
530.53	0.0132
530.878	0.012
531.227	0.0167
531.575	0.0141
531.923	0.0148
532.271	0.0107
532.62	0.0147
532.968	0.0136
533.316	0.0149
533.664	0.015
534.012	0.017
534.36	0.0184
534.708	0.0177
535.056	0.0125
535.404	0.013
535.752	0.013
536.1	0.0154
536.447	0.0133
536.795	0.0106
537.143	0.0096
537.49	0.0121
537.838	0.0134
538.185	0.0172
538.533	0.0135
538.88	0.0124
539.228	0.0111
539.575	0.0124
539.922	0.0137
540.269	0.012
540.617	0.0143
540.964	0.0119
541.311	0.0123
541.658	0.0111
542.005	0.0128
542.352	0.0131
542.699	0.0111
543.045	0.0117
543.392	0.0107
543.739	0.0112
544.086	0.0095
544.432	0.0096
544.779	0.0099
545.126	0.0102
545.472	0.0106
545.819	0.0116
546.165	0.0101
546.512	0.0102
546.858	0.0075
547.204	0.0087
547.55	0.0072
547.897	0.0081
548.243	0.0084
548.589	0.0087
548.935	0.0091
549.281	0.0103
549.627	0.0096
549.973	0.0083
550.319	0.0071
550.665	0.0086
551.01	0.0108
551.356	0.0127
551.702	0.0138
552.048	0.0138
552.393	0.012
552.739	0.0084
553.084	0.0081
553.43	0.0088
553.775	0.0097
554.12	0.0097
554.466	0.0055
554.811	0.0067
555.156	0.0054
555.502	0.0079
555.847	0.009
556.192	0.0094
556.537	0.0079
556.882	0.0069
557.227	0.0065
557.572	0.0083
557.917	0.0073
558.261	0.008
558.606	0.0113
558.951	0.0128
559.295	0.0126
559.64	0.0064
559.985	0.0074
560.329	0.0064
560.674	0.0133
561.018	0.0129
561.363	0.014
561.707	0.0087
562.051	0.0061
562.395	0.006
562.74	0.0112
563.084	0.0114
563.428	0.0121
563.772	0.0083
564.116	0.0059
564.46	0.004
564.804	0.0014
565.148	0.0031
565.492	0.0039
565.835	0.0054
566.179	0.0073
566.523	0.0071
566.866	0.0081
567.21	0.0064
567.554	0.008
567.897	0.0093
568.24	0.0124
568.584	0.0112
568.927	0.0098
569.271	0.0074
569.614	0.0081
569.957	0.007
570.3	0.0059
570.643	0.0052
570.986	0.0055
571.329	0.0084
571.672	0.0098
572.015	0.0066
572.358	0.0049
572.701	0.0018
573.044	0.0044
573.387	0.0054
573.729	0.0062
574.072	0.0057
574.414	0.0038
574.757	0.0037
575.099	0.0065
575.442	0.0075
575.784	0.007
576.127	0.0041
576.469	0.0042
576.811	0.0068
577.153	0.0069
577.496	0.0052
577.838	0.0029
578.18	0.0037
578.522	0.0048
578.864	0.0062
579.206	0.0045
579.548	0.0029
579.889	0.0014
580.231	0.001
580.573	0.0009
580.915	0.0025
581.256	0.0044
581.598	0.0071
581.939	0.0072
582.281	0.0029
582.622	0.0037
582.964	0.0056
583.305	0.0086
583.646	0.0058
583.988	-0.0007
584.329	-0.0024
584.67	0.0002
585.011	0.0035
585.352	0.008
585.693	0.0062
586.034	0.0066
586.375	0.0074
586.716	0.0074
587.057	0.0074
587.398	0.0007
587.738	-0.0008
588.079	0.0013
588.42	0.0052
588.76	0.0069
589.101	0.0053
589.441	0.0035
589.782	0.0031
590.122	0.0022
590.463	0.0038
590.803	0.0059
591.143	0.0086
591.483	0.0062
591.823	0.0048
592.164	0.0026
592.504	0.0023
592.844	0.0017
593.184	0.0026
593.523	0.0055
593.863	0.0063
594.203	0.0038
594.543	0.0026
594.883	0.0052
595.222	0.0039
595.562	0.0005
595.901	0.0013
596.241	0.0025
596.58	0.0055
596.92	0.0058
597.259	0.0081
597.599	0.0072
597.938	0
598.277	0.002
598.616	0.0037
598.955	0.0068
599.295	0.0025
599.634	0.001
599.973	-0.0018
600.312	-0.0027
600.65	-0.0008
600.989	0.0017
601.328	0.0038
601.667	-0.0019
602.005	-0.0007
602.344	-0.0003
602.683	0.0009
603.021	0.0008
603.36	0.0007
603.698	0.0052
604.037	0.0058
604.375	0.0088
604.713	0.0079
605.052	0.0076
605.39	0.002
605.728	0.0007
606.066	-0.0025
606.404	-0.0037
606.742	-0.0034
607.08	-0.0018
607.418	0.0008
607.756	-0.0002
608.094	-0.0004
608.431	0.0027
608.769	0.0018
609.107	0.0057
609.444	0.0004
609.782	0.0032
610.12	0.0016
610.457	0.0034
610.794	0.003
611.132	0.0026
611.469	0.0017
611.806	0.0007
612.144	0.001
612.481	0.0033
612.818	0.0046
613.155	0.0028
613.492	0.0056
613.829	0.0045
614.166	0.0039
614.503	0.0037
614.84	0.0032
615.176	0.0035
615.513	-0.0002
615.85	0.0008
616.187	0.0018
616.523	0.0027
616.86	-0.0008
617.196	-0.0008
617.533	-0.0014
617.869	0.0033
618.205	0.0039
618.542	0.0068
618.878	0.0058
619.214	0.0038
619.55	0.0019
619.886	0.0029
620.222	0.0046
620.558	0.0035
620.894	0.0031
621.23	0.0026
621.566	0.0008
621.902	0.0007
622.238	-0.0009
622.573	0.0016
622.909	-0.0002
623.244	0.0012
623.58	0.0004
623.916	0.0013
624.251	-0.0007
624.586	-0.0054
624.922	-0.0052
625.257	-0.0004
625.592	0.0049
625.927	0.0088
626.263	0.0059
626.598	0.0038
626.933	0.0012
627.268	0.0037
627.603	0.0024
627.938	0.0034
628.272	-0.0007
628.607	-0.0014
628.942	-0.0007
629.277	0.0034
629.611	0.0044
629.946	0.0004
630.281	0
630.615	-0.0005
630.949	0.0031
631.284	0.001
631.618	0.0024
631.953	0.0001
632.287	-0.001
632.621	0.0005
632.955	0.0012
633.289	0.0036
633.623	0.0057
633.957	0.0065
634.291	0.002
634.625	-0.0006
634.959	-0.0036
635.293	-0.001
635.627	-0.0034
635.96	-0.0009
636.294	-0.0027
636.627	-0.0021
636.961	-0.0036
637.294	-0.005
637.628	-0.0025
637.961	0.0002
638.295	0.0007
638.628	-0.0021
638.961	-0.0037
639.294	0.0009
639.628	0.0044
639.961	0.0067
640.294	0.0051
640.627	0.0027
640.96	-0.0023
641.293	-0.0037
641.625	-0.0071
641.958	-0.0048
642.291	0.0006
642.624	0.0049
642.956	0.0043
643.289	0.0023
643.621	0.0012
643.954	-0.0006
644.286	-0.0031
644.619	-0.0003
644.951	0.0023
645.283	0.0026
645.616	0.0018
645.948	0.0013
646.28	0.0021
646.612	0.0011
646.944	0.0025
647.276	0.0036
647.608	0.0007
647.94	0.0034
648.272	0.0068
648.603	0.0109
648.935	0.0084
649.267	0.0053
649.598	0.0007
649.93	-0.0058
650.261	-0.0066
650.593	-0.0021
650.924	0.0024
651.256	0.0029
651.587	0.0007
651.918	0.0041
652.25	0.0013
652.581	0.0007
652.912	-0.0018
653.243	0.0019
653.574	0.0044
653.905	0.0029
654.236	0.0052
654.567	0.0055
654.897	0.0064
655.228	0.0051
655.559	0.0036
655.89	0.0018
656.22	-0.0015
656.551	-0.0023
656.881	-0.0019
657.212	-0.0023
657.542	-0.0018
657.872	-0.0039
658.203	-0.0028
658.533	-0.0195
658.863	-0.0145
659.193	-0.0047
659.523	0.0024
659.853	0.0137
660.183	0.0042
660.513	0.0006
660.843	-0.0017
661.173	-0.0038
661.503	-0.0042
661.833	-0.0026
662.162	0.0013
662.492	0.0033
662.822	-0.0001
663.151	-0.0026
663.481	-0.0034
663.81	-0.0043
664.139	0.0007
664.469	-0.0022
664.798	0.0049
665.127	0.0011
665.456	0.0026
665.785	0.0024
666.114	-0.0029
666.443	0.0019
666.772	-0.0029
667.101	-0.0009
667.43	-0.0021
667.759	0.0041
668.088	0.0063
668.416	0.0009
668.745	-0.0013
669.074	-0.0038
669.402	-0.0065
669.731	-0.0103
670.059	-0.0089
670.388	-0.002
670.716	-0.0016
671.044	0.0033
671.372	0.0021
671.701	0.002
672.029	0.001
672.357	-0.002
672.685	-0.0009
673.013	-0.005
673.341	0.0008
673.669	0.0003
673.996	-0.0002
674.324	-0.0086
674.652	-0.0073
674.98	-0.0009
675.307	-0.0007
675.635	-0.0035
675.962	-0.0051
676.29	-0.003
676.617	0.002
676.945	0.0017
677.272	0.0029
677.599	-0.0006
677.926	-0.0029
678.253	-0.0035
678.581	-0.0035
678.908	-0.0042
679.235	-0.0003
679.561	0.0037
679.888	0.0073
680.215	0.0054
680.542	0.0035
680.869	-0.0006
681.195	0.0014
681.522	-0.0003
681.849	-0.0009
682.175	-0.0033
682.502	-0.0031
682.828	-0.0014
683.154	-0.0041
683.481	-0.0012
683.807	-0.0036
684.133	-0.0016
684.459	-0.006
684.785	-0.0076
685.111	-0.0071
685.437	-0.0037
685.763	-0.0022
686.089	-0.0052
686.415	-0.0107
686.741	-0.0087
687.067	-0.0055
687.392	-0.0036
687.718	-0.0058
688.043	-0.0038
688.369	-0.0042
688.694	0.0027
689.02	-0.0005
689.345	0.005
689.67	-0.0012
689.996	-0.0008
690.321	-0.0064
690.646	-0.0026
690.971	-0.0025
691.296	0.0003
691.621	-0.0054
691.946	-0.0036
692.271	-0.0054
692.596	0.0004
692.921	0.0039
693.245	0.009
693.57	0.007
693.895	0.0014
694.219	-0.0026
694.544	-0.0017
694.868	0.001
695.193	-0.0001
695.517	-0.0024
695.841	-0.0056
696.166	-0.0076
696.49	-0.0091
696.814	-0.0071
697.138	-0.0025
697.462	-0.0038
697.786	-0.0032
698.11	-0.0081
698.434	-0.0012
698.758	-0.0018
699.081	0
699.405	-0.0059
699.729	-0.0119
700.052	-0.013
700.376	-0.0098
700.7	-0.0039
701.023	-0.0016
701.346	-0.0031
701.67	-0.0056
701.993	-0.0064
702.316	-0.0064
702.639	-0.0058
702.963	-0.0092
703.286	-0.0064
703.609	-0.005
703.932	-0.0016
704.255	-0.0018
704.578	-0.0024
704.9	0.0012
705.223	-0.0002
705.546	0.0013
705.868	0.0008
706.191	-0.0046
706.514	-0.0087
706.836	-0.0101
707.159	-0.003
707.481	0.0003
707.803	-0.0015
708.126	-0.0022
708.448	-0.0025
708.77	0.0004
709.092	0.0023
709.414	0.0006
709.736	-0.0032
710.058	-0.0047
710.38	-0.008
710.702	-0.0049
711.024	-0.0046
711.345	-0.0018
711.667	-0.0045
711.989	-0.0039
712.31	0.0015
712.632	0.004
712.953	0.0054
713.275	0.0003
713.596	-0.0002
713.917	-0.0041
714.239	-0.003
714.56	-0.0032
714.881	-0
715.202	-0.0031
715.523	-0.0063
715.844	-0.0084
716.165	-0.0084
716.486	-0.0111
716.807	-0.011
717.128	-0.0093
717.448	-0.0053
717.769	-0.0052
718.09	-0.0026
718.41	0.0027
718.731	0.0041
719.051	0.0032
719.372	0.0008
719.692	-0.0037
720.012	-0.004
720.332	-0.0038
720.653	0.0004
720.973	-0.0013
721.293	-0.0028
721.613	0.0001
721.933	0.0022
722.253	0.0022
722.573	-0.0002
722.892	-0.0034
723.212	-0.0065
723.532	-0.0094
723.851	-0.0066
724.171	-0.006
724.491	-0.0094
724.81	-0.0105
725.129	-0.0071
725.449	-0.0015
725.768	-0.0037
726.087	-0.0051
726.407	-0.0053
726.726	-0.0024
727.045	-0.0002
727.364	-0.0024
727.683	-0.0009
728.002	-0.0011
728.321	-0.0022
728.64	-0.0031
728.958	-0.0052
729.277	-0.0072
729.596	-0.0079
729.914	-0.009
730.233	-0.0014
730.551	-0.005
730.87	-0.0078
731.188	-0.0089
731.507	-0.0073
731.825	-0.0062
732.143	-0.011
732.461	-0.0134
732.779	-0.0064
733.097	-0.0034
733.415	-0.0004
733.733	-0.0086
734.051	-0.0089
734.369	-0.008
734.687	-0.0052
735.005	-0.0031
735.322	-0.0029
735.64	-0.0056
735.957	-0.0054
736.275	-0.0043
736.592	-0.0006
736.91	-0.0037
737.227	-0.0073
737.544	-0.0071
737.862	-0.0009
738.179	0.0003
738.496	0.0002
738.813	-0.0062
739.13	-0.0042
739.447	-0.0015
739.764	-0.0049
740.081	-0.0073
740.398	-0.0118
740.714	-0.0044
741.031	-0.005
741.348	-0.0037
741.664	-0.0052
741.981	-0.0086
742.297	-0.0072
742.614	-0.0087
742.93	-0.0045
743.246	-0.0023
743.563	-0.0012
743.879	-0.0044
744.195	-0.0003
744.511	-0.0032
744.827	0.001
745.143	-0.0121
745.459	-0.0132
745.775	-0.0127
746.091	-0.0089
746.406	-0.0055
746.722	-0.0096
747.038	-0.0118
747.353	-0.0097
747.669	-0.0088
747.984	-0.0087
748.3	-0.0105
748.615	-0.0136
748.93	-0.0101
749.246	-0.008
749.561	-0.0034
749.876	-0.0057
750.191	-0.0131
750.506	-0.0167
750.821	-0.0121
751.136	-0.0072
751.451	-0.0031
751.766	-0.0034
752.08	-0.007
752.395	-0.0089
752.71	-0.0117
753.024	-0.0065
753.339	-0.0005
753.653	0.0026
753.968	0.0008
754.282	-0.0078
754.596	-0.0063
754.911	-0.01
755.225	-0.0018
755.539	-0.0081
755.853	-0.0056
756.167	-0.0085
756.481	-0.0093
756.795	-0.0091
757.109	-0.0044
757.423	-0.0022
757.736	-0.0025
758.05	-0.0083
758.364	-0.0057
758.677	-0.005
758.991	-0.0057
759.304	-0.0066
759.618	-0.004
759.931	0.0003
760.244	-0.0012
760.558	-0.0032
760.871	-0.0052
761.184	-0.0021
761.497	0.0017
761.81	0.0002
762.123	-0.0052
762.436	-0.0094
762.749	-0.0106
763.062	-0.0091
763.374	-0.0105
763.687	-0.0096
764	-0.0076
764.312	-0.0043
764.625	-0.0032
764.937	-0.0065
765.25	-0.0088
765.562	-0.0085
765.874	-0.0066
766.186	-0.0086
766.499	-0.009
766.811	-0.0111
767.123	-0.0109
767.435	-0.0117
767.747	-0.0096
768.059	-0.0054
768.37	-0.0058
768.682	-0.0051
768.994	-0.0097
769.306	-0.0087
769.617	-0.0093
769.929	-0.0022
770.24	-0.0014
770.552	-0.0049
770.863	-0.0133
771.174	-0.0106
771.486	-0.0059
771.797	-0.0003
772.108	-0.0006
772.419	-0.0017
772.73	-0.0053
773.041	-0.0092
773.352	-0.0062
773.663	-0.0054
773.974	-0.0025
774.285	-0.0056
774.595	-0.005
774.906	-0.0052
775.217	-0.0052
775.527	-0.0031
775.838	-0.0057
776.148	-0.0078
776.458	-0.0096
776.769	-0.0093
777.079	-0.0048
777.389	-0.0097
777.699	-0.0057
778.009	-0.0084
778.319	-0.0048
778.629	-0.0078
778.939	-0.0062
779.249	-0.0015
779.559	-0.0014
779.869	-0.0075
780.178	-0.0139
780.488	-0.015
780.798	-0.013
781.107	-0.0072
781.417	-0.0131
781.726	-0.0133
782.035	-0.0181
782.345	-0.0076
782.654	-0.0065
782.963	-0.0051
783.272	-0.0101
783.581	-0.0095
783.89	-0.0092
784.199	-0.0037
784.508	-0.0068
784.817	-0.0105
785.126	-0.0156
785.434	-0.011
785.743	-0.0048
786.052	-0.0038
786.36	-0.0064
786.669	-0.0076
786.977	-0.0081
787.285	-0.0045
787.594	-0.0026
787.902	0.0007
788.21	-0.0007
788.518	-0.0034
788.826	-0.007
789.135	-0.0076
789.442	-0.0099
789.75	-0.0096
790.058	-0.0133
790.366	-0.0097
790.674	-0.0111
790.981	-0.0059
791.289	-0.0061
791.597	-0.0053
791.904	-0.0079
792.212	-0.0095
792.519	-0.008
792.826	-0.009
793.134	-0.007
793.441	-0.0077
793.748	-0.0016
794.055	-0.0004
794.362	-0.0029
794.669	-0.0071
794.976	-0.0117
795.283	-0.0089
795.59	-0.0076
795.897	-0.0057
796.203	-0.0109
796.51	-0.0163
796.817	-0.0157
797.123	-0.0097
797.43	-0.0064
797.736	-0.0055
798.042	-0.0101
798.349	-0.0054
798.655	-0.0061
798.961	-0.0079
799.267	-0.011
799.573	-0.0156
799.879	-0.0105
800.185	-0.0122
800.491	-0.0023
800.797	-0.0019
801.103	-0.0005
801.408	-0.0026
801.714	-0.0007
802.02	-0.0024
802.325	-0.0047
802.631	-0.0145
802.936	-0.0153
803.242	-0.0143
803.547	-0.0093
803.852	-0.0117
804.157	-0.0157
804.462	-0.0177
804.768	-0.011
805.073	-0.0072
805.378	-0.0055
805.682	-0.0068
805.987	-0.0039
806.292	-0.0023
806.597	0.0027
806.902	-0.0003
807.206	-0.0057
807.511	-0.0134
807.815	-0.0167
808.12	-0.0109
808.424	-0.0146
808.728	-0.0132
809.033	-0.0143
809.337	-0.0146
809.641	-0.0137
809.945	-0.018
810.249	-0.0115
810.553	-0.0126
810.857	-0.0056
811.161	-0.0095
811.465	-0.0087
811.768	-0.0139
812.072	-0.0178
812.376	-0.0109
812.679	-0.0129
812.983	-0.0076
813.286	-0.0127
813.59	-0.0083
813.893	-0.0132
814.196	-0.0118
814.499	-0.0131
814.803	-0.0079
815.106	-0.0155
815.409	-0.0084
815.712	-0.0064
816.015	-0.0008
816.318	-0.0077
816.62	-0.0143
816.923	-0.0183
817.226	-0.0191
817.528	-0.0122
817.831	-0.0083
818.133	-0.0012
818.436	-0.0069
818.738	-0.0004
819.041	-0.0107
819.343	-0.0123
819.645	-0.0212
819.947	-0.0138
820.249	-0.0123
820.551	-0.0089
820.853	-0.0057
821.155	-0.0093
821.457	-0.0025
821.759	-0.0065
822.061	-0.001
822.362	-0.0064
822.664	-0.0104
822.966	-0.0049
823.267	-0.0098
823.569	-0.0047
823.87	-0.0153
824.171	-0.009
824.473	-0.0135
824.774	-0.0078
825.075	-0.0117
825.376	-0.009
825.677	-0.0033
825.978	-0.0034
826.279	-0.0052
826.58	-0.0031
826.881	-0.007
827.181	-0.0008
827.482	-0.0034
827.783	-0.001
828.083	-0.014
828.384	-0.0284
828.684	-0.0347
828.985	-0.0182
829.285	-0.0123
829.585	-0.0088
829.885	-0.0183
830.185	-0.0189
830.486	-0.0152
830.786	-0.0044
831.086	0.0024
831.385	-0.0019
831.685	-0.0136
831.985	-0.029
832.285	-0.019
832.585	-0.0213
832.884	-0.01
833.184	-0.0207
833.483	-0.0246
833.783	-0.0251
834.082	-0.0228
834.381	-0.0123
834.681	-0.0074
834.98	-0.0035
835.279	-0.0058
835.578	-0.0096
835.877	-0.006
836.176	-0.0027
836.475	-0.0034
836.774	-0.0108
837.072	-0.0135
837.371	-0.009
837.67	-0.0041
837.968	-0.0042
838.267	-0.012
838.565	-0.0192
838.864	-0.0172
839.162	-0.0226
839.46	-0.0259
839.759	-0.0204
840.057	-0.0108
840.355	-0.0003
840.653	-0.0046
840.951	-0.0109
841.249	-0.0155
841.547	-0.0109
841.845	0.0061
842.142	0.0142
842.44	-0.0013
842.738	-0.016
843.035	-0.034
843.333	-0.0288
843.63	-0.0207
843.928	-0.0044
844.225	-0.0017
844.522	0.0061
844.82	-0.0009
845.117	-0.0023
845.414	-0.0171
845.711	-0.0034
846.008	-0.0027
846.305	-0.0102
846.602	-0.0275
846.898	-0.0229
847.195	-0.0176
847.492	-0.0101
847.788	-0.0138
848.085	0.0007
848.382	0.0016
848.678	-0.0099
848.974	-0.0293
849.271	-0.0235
849.567	-0.0141
849.863	-0.0071
850.159	-0.0179
850.455	-0.0216
850.751	-0.0186
851.047	-0.011
851.343	-0.0081
851.639	-0.0077
851.935	-0.0016
852.23	-0.0065
852.526	-0.0156
852.822	-0.0165
853.117	-0.0125
853.413	-0.0092
853.708	-0.0272
854.003	-0.0118
854.299	-0.0083
854.594	-0.0139
854.889	-0.033
855.184	-0.0266
855.479	-0.0091
855.774	0.0131
856.069	-0.0056
856.364	-0.0068
856.659	-0.0234
856.954	0.0023
857.248	0.0002
857.543	0.0053
857.837	-0.011
858.132	-0.0068
858.426	-0.0098
858.721	-0.0063
859.015	-0.0135
859.309	-0.0146
859.604	-0.0246
859.898	-0.0176
860.192	-0.0179
860.486	-0.0134
860.78	-0.0156
861.074	-0.0185
861.367	-0.0109
861.661	-0.0042
861.955	-0.0025
862.248	-0.0074
862.542	-0.0219
862.836	-0.0182
863.129	-0.0138
863.422	-0.0019
863.716	0.007
864.009	0.013
864.302	-0.0037
864.595	-0.0259
864.889	-0.0351
865.182	-0.0171
865.475	-0.0006
865.767	-0.0109
866.06	-0.0248
866.353	-0.0349
866.646	-0.0085
866.938	-0.0184
867.231	-0.0122
867.524	-0.0199
867.816	0.0299
868.109	0.0597
868.401	0.06
868.693	0.0263
868.985	-0.0162
869.278	-0.0253
869.57	-0.0315
869.862	-0.032
870.154	-0.045
870.446	-0.0458
870.738	-0.0418
871.029	-0.0463
871.321	-0.0295
871.613	-0.0072
871.904	0.0051
872.196	0.0132
872.487	0.0144
872.779	0.0055
873.07	-0.0093
873.362	-0.0191
873.653	0.0209
873.944	0.0056
874.235	-0.0211
874.526	-0.0536
874.817	-0.0411
875.108	-0.0018
875.399	0.0095
875.69	0.0148
875.981	-0.0005
876.271	-0.0186
876.562	-0.02
876.853	-0.0423
877.143	-0.023
877.434	-0.0265
877.724	-0.0451
878.014	-0.0367
878.305	-0.0437
878.595	0.0128
878.885	-0.0135
879.175	-0.0239
879.465	-0.0346
879.755	-0.0148
880.045	0.0294
880.335	0.0401
880.624	0.0465
880.914	0.0465
