Data from 12-1-SS01MU_080917_1b_Absorbance_11-02-08-980.txt Node
Date: Fri Aug 11 11:02:08 MDT 2017
User: Tank Lab
Spectrometer: FLMS01220
Trigger mode: 0
Integration Time (sec): 1.000000E-1
Scans to average: 10
Electric dark correction enabled: true
Nonlinearity correction enabled: false
Boxcar width: 1
XAxis mode: Wavelengths
Number of Pixels in Spectrum: 2048
>>>>>Begin Spectral Data<<<<<
179.47	-0.2097
179.856	-0.2097
180.241	-0.2658
180.626	-0.6106
181.011	-0.0526
181.396	-0
181.781	0.0142
182.166	0.6245
182.551	-0
182.936	0.0334
183.321	-0
183.706	1.0521
184.091	-0
184.476	-0.2226
184.86	0.4281
185.245	0.1238
185.63	-0
186.015	-0
186.399	-0.1541
186.784	-1.143
187.169	-0.3098
187.553	-0
187.938	0.4451
188.322	0.4527
188.707	0.3675
189.091	0.4029
189.475	0.371
189.86	0.4628
190.244	0.4659
190.629	0.454
191.013	0.423
191.397	0.4927
191.781	0.5929
192.165	0.658
192.55	0.7517
192.934	0.8071
193.318	0.862
193.702	0.8269
194.086	0.8205
194.47	0.8522
194.854	0.9094
195.238	0.9568
195.622	1.0619
196.006	1.1124
196.389	1.1811
196.773	1.085
197.157	1.0859
197.541	1.107
197.924	1.1956
198.308	1.2099
198.692	1.207
199.075	1.1917
199.459	1.1968
199.843	1.2219
200.226	1.244
200.61	1.3091
200.993	1.3154
201.376	1.2625
201.76	1.2593
202.143	1.2902
202.527	1.3131
202.91	1.2717
203.293	1.2799
203.676	1.3528
204.059	1.3782
204.443	1.3691
204.826	1.3599
205.209	1.3909
205.592	1.3716
205.975	1.3382
206.358	1.3319
206.741	1.3128
207.124	1.3294
207.507	1.3436
207.89	1.3566
208.273	1.3621
208.655	1.3413
209.038	1.3715
209.421	1.3709
209.804	1.3823
210.186	1.406
210.569	1.4263
210.951	1.4292
211.334	1.4125
211.717	1.4214
212.099	1.3978
212.482	1.4124
212.864	1.4229
213.246	1.4521
213.629	1.4376
214.011	1.4029
214.393	1.4237
214.776	1.4132
215.158	1.4575
215.54	1.4562
215.922	1.4869
216.305	1.4648
216.687	1.437
217.069	1.4358
217.451	1.4701
217.833	1.4871
218.215	1.4886
218.597	1.4405
218.979	1.4464
219.361	1.4499
219.742	1.4952
220.124	1.5211
220.506	1.5158
220.888	1.4907
221.27	1.4555
221.651	1.4543
222.033	1.4463
222.415	1.4369
222.796	1.4287
223.178	1.4283
223.559	1.4441
223.941	1.4364
224.322	1.435
224.704	1.4144
225.085	1.4178
225.466	1.4001
225.848	1.4244
226.229	1.4235
226.61	1.4389
226.992	1.4124
227.373	1.416
227.754	1.4139
228.135	1.4187
228.516	1.3918
228.897	1.386
229.278	1.3743
229.659	1.3943
230.04	1.3942
230.421	1.3961
230.802	1.3911
231.183	1.375
231.564	1.3639
231.944	1.3551
232.325	1.3594
232.706	1.3629
233.087	1.3618
233.467	1.3633
233.848	1.3483
234.229	1.3378
234.609	1.3316
234.99	1.3313
235.37	1.332
235.751	1.332
236.131	1.3342
236.511	1.3316
236.892	1.3238
237.272	1.332
237.652	1.3161
238.033	1.3025
238.413	1.2857
238.793	1.2778
239.173	1.2757
239.553	1.2651
239.933	1.2628
240.313	1.266
240.694	1.2665
241.074	1.2722
241.453	1.2593
241.833	1.2578
242.213	1.2576
242.593	1.2618
242.973	1.2565
243.353	1.2469
243.732	1.2458
244.112	1.2383
244.492	1.2254
244.872	1.2194
245.251	1.2173
245.631	1.2164
246.01	1.2007
246.39	1.2006
246.769	1.1976
247.149	1.1919
247.528	1.1804
247.908	1.1684
248.287	1.169
248.666	1.165
249.045	1.1669
249.425	1.1671
249.804	1.1611
250.183	1.1589
250.562	1.155
250.941	1.1514
251.32	1.1476
251.699	1.1398
252.078	1.1381
252.457	1.1319
252.836	1.1287
253.215	1.1254
253.594	1.1204
253.973	1.1196
254.352	1.1181
254.731	1.1196
255.109	1.1113
255.488	1.1135
255.867	1.1094
256.245	1.1088
256.624	1.1062
257.002	1.1059
257.381	1.1024
257.759	1.0914
258.138	1.0843
258.516	1.0852
258.895	1.0843
259.273	1.0821
259.651	1.0716
260.03	1.0663
260.408	1.0601
260.786	1.0621
261.164	1.0652
261.542	1.066
261.921	1.0624
262.299	1.0557
262.677	1.0484
263.055	1.0403
263.433	1.0333
263.811	1.0289
264.188	1.0324
264.566	1.0338
264.944	1.0287
265.322	1.0186
265.7	1.0115
266.077	1.0113
266.455	1.0114
266.833	1.0092
267.21	1.0072
267.588	1.0002
267.966	0.993
268.343	0.9855
268.721	0.9803
269.098	0.9773
269.475	0.9756
269.853	0.9717
270.23	0.9681
270.607	0.965
270.985	0.9613
271.362	0.9554
271.739	0.9462
272.116	0.9419
272.494	0.9367
272.871	0.9325
273.248	0.9284
273.625	0.9248
274.002	0.9225
274.379	0.9167
274.756	0.9117
275.132	0.9068
275.509	0.9063
275.886	0.9047
276.263	0.9005
276.64	0.8956
277.016	0.8909
277.393	0.8861
277.77	0.8739
278.146	0.8671
278.523	0.8615
278.899	0.8614
279.276	0.8595
279.652	0.8572
280.029	0.8559
280.405	0.8513
280.782	0.8478
281.158	0.8424
281.534	0.8386
281.91	0.8355
282.287	0.8321
282.663	0.8291
283.039	0.8248
283.415	0.8231
283.791	0.8179
284.167	0.8153
284.543	0.8115
284.919	0.806
285.295	0.8019
285.671	0.7967
286.047	0.7971
286.423	0.7908
286.799	0.7855
287.174	0.781
287.55	0.7788
287.926	0.7731
288.301	0.7674
288.677	0.7647
289.053	0.763
289.428	0.7625
289.804	0.7582
290.179	0.754
290.555	0.7485
290.93	0.745
291.305	0.7405
291.681	0.7364
292.056	0.7297
292.431	0.7279
292.806	0.7247
293.182	0.7238
293.557	0.7246
293.932	0.7203
294.307	0.7164
294.682	0.7086
295.057	0.7068
295.432	0.702
295.807	0.6989
296.182	0.6924
296.557	0.6886
296.932	0.6855
297.306	0.6821
297.681	0.6814
298.056	0.6731
298.43	0.6698
298.805	0.662
299.18	0.6593
299.554	0.6556
299.929	0.6579
300.303	0.6563
300.678	0.6535
301.052	0.6475
301.427	0.646
301.801	0.6456
302.175	0.6446
302.55	0.6419
302.924	0.6332
303.298	0.6258
303.672	0.6192
304.046	0.6182
304.421	0.6144
304.795	0.6162
305.169	0.6123
305.543	0.6114
305.917	0.6042
306.291	0.6055
306.664	0.6022
307.038	0.6001
307.412	0.5942
307.786	0.5925
308.16	0.5892
308.533	0.585
308.907	0.5816
309.281	0.5782
309.654	0.5776
310.028	0.5729
310.401	0.5697
310.775	0.5682
311.148	0.5634
311.522	0.5609
311.895	0.5559
312.268	0.5573
312.642	0.5547
313.015	0.5496
313.388	0.5441
313.761	0.5421
314.135	0.5394
314.508	0.5366
314.881	0.5328
315.254	0.5328
315.627	0.5313
316	0.5318
316.373	0.5276
316.746	0.5237
317.118	0.5157
317.491	0.5114
317.864	0.508
318.237	0.5083
318.61	0.5068
318.982	0.5036
319.355	0.4975
319.727	0.4933
320.1	0.4918
320.473	0.4926
320.845	0.4889
321.218	0.4872
321.59	0.4831
321.962	0.4818
322.335	0.477
322.707	0.4751
323.079	0.4757
323.452	0.474
323.824	0.4726
324.196	0.4661
324.568	0.4652
324.94	0.4627
325.312	0.4626
325.684	0.4588
326.056	0.4545
326.428	0.4484
326.8	0.4473
327.172	0.4442
327.544	0.4445
327.915	0.4381
328.287	0.4399
328.659	0.4369
329.031	0.4376
329.402	0.4314
329.774	0.4302
330.145	0.4238
330.517	0.421
330.888	0.417
331.26	0.4181
331.631	0.4165
332.003	0.4117
332.374	0.4081
332.745	0.4069
333.117	0.4063
333.488	0.4047
333.859	0.4021
334.23	0.3998
334.601	0.3971
334.972	0.3936
335.343	0.3912
335.714	0.3883
336.085	0.387
336.456	0.3864
336.827	0.3824
337.198	0.3788
337.569	0.3749
337.94	0.3738
338.31	0.3729
338.681	0.3727
339.052	0.3708
339.422	0.37
339.793	0.3668
340.164	0.3655
340.534	0.3635
340.905	0.3609
341.275	0.3574
341.645	0.3541
342.016	0.3501
342.386	0.3487
342.756	0.3457
343.127	0.3455
343.497	0.3443
343.867	0.3406
344.237	0.3386
344.607	0.3352
344.977	0.3344
345.347	0.3327
345.717	0.3337
346.087	0.332
346.457	0.3292
346.827	0.3256
347.197	0.3238
347.567	0.321
347.936	0.3197
348.306	0.3187
348.676	0.3194
349.046	0.3148
349.415	0.312
349.785	0.3097
350.154	0.308
350.524	0.3047
350.893	0.302
351.263	0.2997
351.632	0.3001
352.001	0.2971
352.371	0.297
352.74	0.2926
353.109	0.2911
353.478	0.29
353.847	0.29
354.217	0.2886
354.586	0.2852
354.955	0.2808
355.324	0.2802
355.693	0.278
356.062	0.2775
356.43	0.2733
356.799	0.2705
357.168	0.2689
357.537	0.2684
357.906	0.2695
358.274	0.2688
358.643	0.2662
359.011	0.2639
359.38	0.2602
359.749	0.2585
360.117	0.2561
360.486	0.2548
360.854	0.2544
361.222	0.2519
361.591	0.2517
361.959	0.2501
362.327	0.248
362.695	0.2453
363.064	0.2457
363.432	0.2434
363.8	0.2398
364.168	0.2339
364.536	0.2333
364.904	0.2347
365.272	0.2363
365.64	0.234
366.008	0.2315
366.376	0.2291
366.743	0.229
367.111	0.2274
367.479	0.2231
367.847	0.22
368.214	0.2207
368.582	0.2215
368.949	0.2206
369.317	0.2142
369.684	0.2122
370.052	0.2132
370.419	0.214
370.787	0.2109
371.154	0.2082
371.521	0.2052
371.889	0.2021
372.256	0.1982
372.623	0.1968
372.99	0.1989
373.357	0.1996
373.724	0.2
374.091	0.1975
374.458	0.194
374.825	0.1926
375.192	0.1929
375.559	0.1923
375.926	0.1916
376.293	0.1867
376.659	0.1851
377.026	0.1827
377.393	0.1849
377.759	0.1842
378.126	0.1817
378.492	0.1775
378.859	0.1758
379.225	0.1754
379.592	0.175
379.958	0.1741
380.325	0.1708
380.691	0.1698
381.057	0.1687
381.423	0.1703
381.79	0.169
382.156	0.1662
382.522	0.1627
382.888	0.1628
383.254	0.1612
383.62	0.1641
383.986	0.16
384.352	0.1618
384.718	0.1575
385.084	0.1598
385.449	0.1583
385.815	0.1586
386.181	0.1552
386.547	0.1543
386.912	0.1531
387.278	0.1521
387.643	0.1481
388.009	0.146
388.374	0.1432
388.74	0.143
389.105	0.1405
389.471	0.1418
389.836	0.1432
390.201	0.1415
390.566	0.1387
390.932	0.1341
391.297	0.1346
391.662	0.1339
392.027	0.1342
392.392	0.1341
392.757	0.136
393.122	0.1357
393.487	0.1356
393.852	0.1341
394.217	0.1321
394.582	0.1289
394.946	0.1268
395.311	0.1249
395.676	0.1246
396.04	0.122
396.405	0.1249
396.77	0.1245
397.134	0.1257
397.499	0.1236
397.863	0.1211
398.227	0.1189
398.592	0.1191
398.956	0.1201
399.32	0.1209
399.685	0.1205
400.049	0.1189
400.413	0.118
400.777	0.1149
401.141	0.1149
401.505	0.1132
401.869	0.1139
402.233	0.1133
402.597	0.1139
402.961	0.111
403.325	0.1129
403.689	0.1119
404.053	0.1119
404.416	0.1069
404.78	0.1054
405.144	0.1023
405.507	0.1005
405.871	0.0994
406.234	0.1019
406.598	0.1028
406.961	0.104
407.325	0.1047
407.688	0.1055
408.051	0.1048
408.415	0.1023
408.778	0.0994
409.141	0.0983
409.504	0.0979
409.867	0.1003
410.23	0.0986
410.593	0.0976
410.956	0.0943
411.319	0.0934
411.682	0.0901
412.045	0.0881
412.408	0.0891
412.771	0.092
413.134	0.0931
413.496	0.0899
413.859	0.0868
414.222	0.0864
414.584	0.087
414.947	0.0866
415.309	0.0842
415.672	0.0828
416.034	0.0836
416.396	0.0825
416.759	0.083
417.121	0.0828
417.483	0.0858
417.846	0.0867
418.208	0.0859
418.57	0.0842
418.932	0.0833
419.294	0.083
419.656	0.0827
420.018	0.081
420.38	0.0801
420.742	0.0803
421.104	0.0787
421.466	0.079
421.827	0.0788
422.189	0.0789
422.551	0.0773
422.912	0.0751
423.274	0.0742
423.636	0.0732
423.997	0.0718
424.359	0.0706
424.72	0.0718
425.081	0.071
425.443	0.07
425.804	0.0682
426.165	0.0669
426.527	0.068
426.888	0.0684
427.249	0.0671
427.61	0.066
427.971	0.0643
428.332	0.0655
428.693	0.068
429.054	0.0682
429.415	0.0692
429.776	0.0666
430.137	0.0662
430.498	0.0628
430.858	0.0617
431.219	0.0603
431.58	0.0637
431.94	0.0625
432.301	0.0619
432.661	0.0606
433.022	0.0599
433.382	0.0611
433.743	0.0607
434.103	0.0624
434.463	0.0626
434.824	0.062
435.184	0.0595
435.544	0.0565
435.904	0.0561
436.264	0.0551
436.624	0.0549
436.985	0.055
437.345	0.0573
437.704	0.0564
438.064	0.0562
438.424	0.0544
438.784	0.0574
439.144	0.0564
439.504	0.056
439.863	0.0519
440.223	0.0515
440.583	0.0539
440.942	0.0578
441.302	0.0552
441.661	0.0531
442.021	0.0496
442.38	0.0535
442.739	0.0542
443.099	0.0533
443.458	0.0541
443.817	0.0546
444.176	0.0566
444.536	0.0513
444.895	0.05
445.254	0.0503
445.613	0.0519
445.972	0.0487
446.331	0.0507
446.69	0.0497
447.049	0.0508
447.407	0.0463
447.766	0.0448
448.125	0.0452
448.484	0.0442
448.842	0.0454
449.201	0.0442
449.559	0.0456
449.918	0.0448
450.276	0.0449
450.635	0.0462
450.993	0.0439
451.352	0.0437
451.71	0.0409
452.068	0.0433
452.426	0.043
452.785	0.044
453.143	0.0432
453.501	0.0401
453.859	0.0398
454.217	0.0411
454.575	0.0455
454.933	0.0443
455.291	0.0439
455.649	0.0427
456.006	0.0409
456.364	0.0395
456.722	0.0384
457.079	0.0408
457.437	0.0401
457.795	0.0396
458.152	0.0391
458.51	0.0398
458.867	0.0416
459.225	0.0427
459.582	0.0443
459.939	0.0417
460.297	0.0413
460.654	0.0381
461.011	0.0394
461.368	0.0338
461.725	0.0336
462.082	0.0318
462.44	0.0342
462.797	0.0362
463.153	0.0389
463.51	0.0398
463.867	0.0377
464.224	0.0361
464.581	0.0347
464.938	0.0344
465.294	0.0334
465.651	0.0321
466.008	0.0308
466.364	0.0303
466.721	0.0317
467.077	0.0312
467.434	0.0303
467.79	0.0288
468.146	0.0304
468.503	0.03
468.859	0.0315
469.215	0.033
469.571	0.0342
469.927	0.0307
470.284	0.0274
470.64	0.0252
470.996	0.0282
471.352	0.0319
471.707	0.0348
472.063	0.0339
472.419	0.0337
472.775	0.0339
473.131	0.0366
473.486	0.0333
473.842	0.0337
474.198	0.0329
474.553	0.0326
474.909	0.0321
475.264	0.0303
475.62	0.0301
475.975	0.0288
476.331	0.0298
476.686	0.0292
477.041	0.029
477.396	0.028
477.752	0.0304
478.107	0.0298
478.462	0.0326
478.817	0.0316
479.172	0.031
479.527	0.0292
479.882	0.0299
480.237	0.0293
480.591	0.0258
480.946	0.0232
481.301	0.0248
481.656	0.0272
482.01	0.0288
482.365	0.0259
482.72	0.0244
483.074	0.0253
483.429	0.0289
483.783	0.0283
484.137	0.0281
484.492	0.0274
484.846	0.03
485.2	0.0274
485.555	0.0247
485.909	0.0242
486.263	0.0262
486.617	0.0254
486.971	0.0237
487.325	0.0236
487.679	0.0254
488.033	0.025
488.387	0.0257
488.741	0.0248
489.094	0.0238
489.448	0.0202
489.802	0.0185
490.156	0.0215
490.509	0.022
490.863	0.0218
491.216	0.0199
491.57	0.021
491.923	0.0226
492.277	0.024
492.63	0.0225
492.983	0.0206
493.337	0.0184
493.69	0.019
494.043	0.0211
494.396	0.0213
494.749	0.0237
495.102	0.0226
495.455	0.0222
495.808	0.0198
496.161	0.0214
496.514	0.0221
496.867	0.0231
497.22	0.0218
497.572	0.0219
497.925	0.0217
498.278	0.021
498.63	0.0204
498.983	0.0209
499.335	0.0202
499.688	0.0197
500.04	0.0175
500.393	0.0192
500.745	0.0196
501.097	0.0205
501.449	0.0201
501.802	0.0195
502.154	0.0171
502.506	0.0163
502.858	0.0158
503.21	0.0181
503.562	0.0206
503.914	0.0247
504.266	0.0235
504.618	0.0227
504.969	0.0176
505.321	0.02
505.673	0.0199
506.025	0.0214
506.376	0.0206
506.728	0.018
507.079	0.0171
507.431	0.0155
507.782	0.0153
508.134	0.0159
508.485	0.0176
508.836	0.0193
509.188	0.0209
509.539	0.018
509.89	0.0141
510.241	0.011
510.592	0.0119
510.943	0.0146
511.294	0.0158
511.645	0.0163
511.996	0.0177
512.347	0.0179
512.698	0.0157
513.049	0.0128
513.399	0.014
513.75	0.0171
514.101	0.0155
514.451	0.0151
514.802	0.0114
515.152	0.0152
515.503	0.015
515.853	0.0149
516.203	0.0143
516.554	0.0138
516.904	0.0157
517.254	0.0154
517.604	0.0127
517.955	0.0132
518.305	0.0121
518.655	0.0139
519.005	0.015
519.355	0.0135
519.705	0.0131
520.055	0.0095
520.404	0.0112
520.754	0.0107
521.104	0.0105
521.454	0.0117
521.803	0.0135
522.153	0.0148
522.502	0.014
522.852	0.0144
523.201	0.0153
523.551	0.0133
523.9	0.0123
524.249	0.0113
524.599	0.0112
524.948	0.0092
525.297	0.0077
525.646	0.0071
525.995	0.0103
526.344	0.0142
526.694	0.0157
527.042	0.0155
527.391	0.0123
527.74	0.0125
528.089	0.0078
528.438	0.0099
528.787	0.0099
529.135	0.0135
529.484	0.0138
529.833	0.0139
530.181	0.0154
530.53	0.0136
530.878	0.0125
531.227	0.0128
531.575	0.0127
531.923	0.0147
532.271	0.0109
532.62	0.0118
532.968	0.0107
533.316	0.0116
533.664	0.0098
534.012	0.0089
534.36	0.0066
534.708	0.0064
535.056	0.0085
535.404	0.0084
535.752	0.0096
536.1	0.0073
536.447	0.0076
536.795	0.0098
537.143	0.0096
537.49	0.0118
537.838	0.0071
538.185	0.0093
538.533	0.0058
538.88	0.0077
539.228	0.0033
539.575	0.0073
539.922	0.0091
540.269	0.0095
540.617	0.0078
540.964	0.0067
541.311	0.0073
541.658	0.0038
542.005	0.0029
542.352	0.0024
542.699	0.0051
543.045	0.0056
543.392	0.006
543.739	0.0066
544.086	0.005
544.432	0.0092
544.779	0.0067
545.126	0.0066
545.472	0.0012
545.819	0.0013
546.165	0.0006
546.512	0.0028
546.858	0.0032
547.204	0.003
547.55	0.002
547.897	0.003
548.243	0.0042
548.589	0.0023
548.935	0.0022
549.281	0.004
549.627	0.0069
549.973	0.0069
550.319	0.0075
550.665	0.0064
551.01	0.0047
551.356	0.0028
551.702	0.0027
552.048	0.0033
552.393	0.0025
552.739	0.0063
553.084	0.0051
553.43	0.0064
553.775	0.0015
554.12	0.0055
554.466	0.0035
554.811	0.0057
555.156	0.0047
555.502	0.005
555.847	0.0048
556.192	0.0043
556.537	0.0046
556.882	0.0034
557.227	0.002
557.572	0.0001
557.917	-0.0009
558.261	-0.0006
558.606	0.0014
558.951	0.001
559.295	-0.0011
559.64	-0.0014
559.985	0.0047
560.329	0.0093
560.674	0.0083
561.018	0.0033
561.363	0.0017
561.707	0.0053
562.051	0.0063
562.395	0.0023
562.74	-0.0002
563.084	-0.0006
563.428	0.0031
563.772	0.0061
564.116	0.0061
564.46	0.0048
564.804	0.0008
565.148	0.0024
565.492	0.0029
565.835	0.0045
566.179	0.0033
566.523	0.0022
566.866	0.0008
567.21	-0.001
567.554	-0.0006
567.897	0.0027
568.24	0.0057
568.584	0.0064
568.927	0.0042
569.271	0.0015
569.614	0.0033
569.957	0.007
570.3	0.0055
570.643	0.0027
570.986	-0.0036
571.329	-0.0028
571.672	-0.0044
572.015	-0.002
572.358	-0.0017
572.701	0.0031
573.044	0.0006
573.387	0.0055
573.729	0.0029
574.072	0.0062
574.414	0.0027
574.757	0.0015
575.099	0.0002
575.442	0
575.784	-0.0013
576.127	-0.0005
576.469	-0.0017
576.811	0.0007
577.153	-0.0016
577.496	-0.0018
577.838	-0.0021
578.18	-0.0001
578.522	0.002
578.864	0.0023
579.206	0.004
579.548	0.0025
579.889	0.0026
580.231	0.001
580.573	0.0004
580.915	-0.0001
581.256	-0.0012
581.598	-0.0016
581.939	-0.0026
582.281	-0.0051
582.622	-0.0038
582.964	-0.0052
583.305	-0.0022
583.646	0.0002
583.988	0.0028
584.329	0.0006
584.67	-0.0012
585.011	-0.0038
585.352	-0.0038
585.693	-0.0045
586.034	-0.0028
586.375	-0.0019
586.716	-0.002
587.057	-0.0021
587.398	-0.0016
587.738	-0.0013
588.079	-0.0024
588.42	-0.0025
588.76	-0.0034
589.101	-0.0029
589.441	-0.0017
589.782	-0.0011
590.122	-0.002
590.463	-0.0036
590.803	-0.0033
591.143	-0.0041
591.483	-0.005
591.823	-0.0043
592.164	-0.001
592.504	0.0031
592.844	0.0005
593.184	-0.002
593.523	-0.0087
593.863	-0.006
594.203	-0.0039
594.543	-0.0007
594.883	-0.0016
595.222	0.0019
595.562	0.0004
595.901	0.0001
596.241	-0.0018
596.58	-0.0013
596.92	-0
597.259	-0.0001
597.599	0.0004
597.938	-0.0015
598.277	-0.0026
598.616	-0.0013
598.955	-0.0017
599.295	-0.0037
599.634	-0.0013
599.973	-0.0032
600.312	-0.0007
600.65	-0.0033
600.989	0.0012
601.328	0.0009
601.667	-0.0006
602.005	-0.0035
602.344	-0.0057
602.683	-0.0059
603.021	-0.0046
603.36	-0.005
603.698	-0.0035
604.037	-0.0068
604.375	-0.0034
604.713	-0.0017
605.052	0.0033
605.39	0.0016
605.728	0.0023
606.066	-0.0023
606.404	-0.0013
606.742	-0.0038
607.08	-0.0042
607.418	-0.0044
607.756	-0.003
608.094	0.0001
608.431	0.0005
608.769	-0.0021
609.107	-0.001
609.444	-0.0039
609.782	-0.0041
610.12	-0.0066
610.457	-0.005
610.794	-0.0033
611.132	-0.001
611.469	-0.002
611.806	-0.0035
612.144	-0.0058
612.481	-0.0036
612.818	-0.0053
613.155	-0.0057
613.492	-0.0075
613.829	-0.0024
614.166	-0.0033
614.503	-0.0023
614.84	-0.0049
615.176	-0.0045
615.513	-0.0039
615.85	-0.0016
616.187	0.0023
616.523	0.0006
616.86	-0.0018
617.196	-0.0054
617.533	-0.0018
617.869	-0.0021
618.205	-0.0009
618.542	-0.0071
618.878	-0.0072
619.214	-0.0072
619.55	-0.0028
619.886	-0.0029
620.222	-0.0017
620.558	-0.004
620.894	-0.0032
621.23	-0.0049
621.566	-0.0032
621.902	-0.004
622.238	-0.0047
622.573	-0.0049
622.909	-0.0047
623.244	-0.0067
623.58	-0.0095
623.916	-0.0092
624.251	-0.006
624.586	-0.0049
624.922	-0.0069
625.257	-0.0096
625.592	-0.0085
625.927	-0.0078
626.263	-0.0077
626.598	-0.0095
626.933	-0.0067
627.268	-0.0031
627.603	-0.002
627.938	0.0002
628.272	-0.0002
628.607	0.0011
628.942	-0.0014
629.277	0.0009
629.611	0.0048
629.946	0.0031
630.281	0.0006
630.615	-0.005
630.949	-0.0039
631.284	-0.0011
631.618	-0.0013
631.953	-0.0059
632.287	-0.0106
632.621	-0.0112
632.955	-0.0075
633.289	-0.0074
633.623	-0.0075
633.957	-0.0095
634.291	-0.0084
634.625	-0.007
634.959	-0.0073
635.293	-0.0043
635.627	-0.0022
635.96	0.0032
636.294	0.0024
636.627	-0.0016
636.961	-0.0061
637.294	-0.0022
637.628	0.0003
637.961	-0.0004
638.295	-0.0009
638.628	0.0028
638.961	0.0059
639.294	0.003
639.628	-0.0057
639.961	-0.0067
640.294	-0.0075
640.627	-0.0036
640.96	-0.006
641.293	-0.0125
641.625	-0.0102
641.958	-0.0076
642.291	-0.0055
642.624	-0.0087
642.956	-0.0139
643.289	-0.0098
643.621	-0.01
643.954	-0.0076
644.286	-0.0089
644.619	-0.0093
644.951	-0.0127
645.283	-0.0088
645.616	-0.0085
645.948	-0.0068
646.28	-0.0073
646.612	-0.0036
646.944	-0.0015
647.276	-0.0062
647.608	-0.0039
647.94	-0.0012
648.272	0.0032
648.603	0.0007
648.935	-0.0046
649.267	-0.006
649.598	-0.0075
649.93	-0.0039
650.261	-0.0016
650.593	-0.0011
650.924	-0.0056
651.256	-0.0083
651.587	-0.0065
651.918	-0.0018
652.25	-0.0007
652.581	-0.0021
652.912	-0.0049
653.243	-0.0064
653.574	-0.0088
653.905	-0.0082
654.236	-0.0081
654.567	-0.006
654.897	-0.0072
655.228	-0.0064
655.559	-0.0056
655.89	-0.0049
656.22	-0.0099
656.551	-0.0091
656.881	-0.0028
657.212	0.0006
657.542	0.0034
657.872	-0.0004
658.203	0.0048
658.533	-0.0017
658.863	-0.0049
659.193	-0.0082
659.523	-0.0116
659.853	-0.0145
660.183	-0.0122
660.513	-0.0118
660.843	-0.0085
661.173	-0.0093
661.503	-0.0077
661.833	-0.0085
662.162	-0.0062
662.492	-0.0025
662.822	-0.0049
663.151	-0.0038
663.481	-0.0104
663.81	-0.0053
664.139	-0.0071
664.469	0.0001
664.798	-0.0019
665.127	-0.0034
665.456	-0.0095
665.785	-0.0105
666.114	-0.0065
666.443	-0.0017
666.772	0.0004
667.101	-0.0024
667.43	-0.0069
667.759	-0.0092
668.088	-0.0088
668.416	-0.0061
668.745	-0.0097
669.074	-0.0099
669.402	-0.008
669.731	0.0005
670.059	-0.0026
670.388	-0.0056
670.716	-0.0121
671.044	-0.009
671.372	-0.0063
671.701	-0.0046
672.029	-0.011
672.357	-0.0112
672.685	-0.0063
673.013	-0.001
673.341	-0.0053
673.669	-0.0087
673.996	-0.0079
674.324	-0.0016
674.652	0.0001
674.98	-0.0023
675.307	-0.0052
675.635	-0.0096
675.962	-0.0074
676.29	-0.0088
676.617	-0.0072
676.945	-0.0082
677.272	-0.0115
677.599	-0.0126
677.926	-0.012
678.253	-0.0131
678.581	-0.0118
678.908	-0.0119
679.235	-0.0082
679.561	-0.0097
679.888	-0.0098
680.215	-0.0094
680.542	-0.0053
680.869	-0.0002
681.195	0.0011
681.522	-0.0009
681.849	-0.0043
682.175	-0.0069
682.502	-0.0083
682.828	-0.0117
683.154	-0.011
683.481	-0.009
683.807	-0.0078
684.133	-0.0074
684.459	-0.0057
684.785	-0.0032
685.111	-0.0024
685.437	-0.0025
685.763	-0.0046
686.089	-0.0062
686.415	-0.009
686.741	-0.0111
687.067	-0.0086
687.392	-0.0105
687.718	-0.0094
688.043	-0.0111
688.369	-0.0083
688.694	-0.0086
689.02	-0.0051
689.345	-0.0065
689.67	-0.0034
689.996	-0.0042
690.321	-0.0055
690.646	-0.0074
690.971	-0.0111
691.296	-0.0071
691.621	-0.0035
691.946	-0.0028
692.271	-0.0035
692.596	-0.0088
692.921	-0.0078
693.245	-0.0113
693.57	-0.0124
693.895	-0.0142
694.219	-0.0131
694.544	-0.0097
694.868	-0.0117
695.193	-0.0132
695.517	-0.0149
695.841	-0.0149
696.166	-0.0135
696.49	-0.0101
696.814	-0.0067
697.138	-0.0076
697.462	-0.0119
697.786	-0.0136
698.11	-0.0104
698.434	-0.0125
698.758	-0.0101
699.081	-0.0108
699.405	-0.01
699.729	-0.0094
700.052	-0.008
700.376	-0.0042
700.7	-0.0009
701.023	-0.0034
701.346	-0.006
701.67	-0.0124
701.993	-0.0052
702.316	-0.0021
702.639	-0.0034
702.963	-0.0047
703.286	-0.0084
703.609	-0.0037
703.932	-0.0119
704.255	-0.0109
704.578	-0.0143
704.9	-0.0108
705.223	-0.0112
705.546	-0.0101
705.868	-0.0119
706.191	-0.0108
706.514	-0.0091
706.836	-0.0042
707.159	-0.0055
707.481	-0.0052
707.803	-0.0072
708.126	-0.009
708.448	-0.0124
708.77	-0.0135
709.092	-0.0127
709.414	-0.012
709.736	-0.0138
710.058	-0.011
710.38	-0.0097
710.702	-0.0082
711.024	-0.0075
711.345	-0.0052
711.667	-0.0041
711.989	-0.0119
712.31	-0.0159
712.632	-0.0172
712.953	-0.0124
713.275	-0.0085
713.596	-0.0081
713.917	-0.0036
714.239	-0.0035
714.56	0.0032
714.881	0.0004
715.202	0.0006
715.523	-0.0057
715.844	-0.0046
716.165	-0.0085
716.486	-0.01
716.807	-0.0116
717.128	-0.0089
717.448	-0.0042
717.769	-0.0022
718.09	-0.0049
718.41	-0.0055
718.731	-0.0027
719.051	-0.006
719.372	-0.0088
719.692	-0.0185
720.012	-0.0146
720.332	-0.0171
720.653	-0.0166
720.973	-0.0146
721.293	-0.0084
721.613	0.001
721.933	0.0016
722.253	0.0003
722.573	-0.0095
722.892	-0.0101
723.212	-0.012
723.532	-0.0055
723.851	-0.005
724.171	-0.0079
724.491	-0.0124
724.81	-0.0162
725.129	-0.0131
725.449	-0.0127
725.768	-0.0103
726.087	-0.0081
726.407	-0.0084
726.726	-0.0079
727.045	-0.007
727.364	-0.0053
727.683	-0.0052
728.002	-0.0099
728.321	-0.0129
728.64	-0.012
728.958	-0.0109
729.277	-0.0053
729.596	-0.0051
729.914	-0.0058
730.233	-0.0059
730.551	-0.0077
730.87	-0.0048
731.188	-0.0053
731.507	0.0004
731.825	0.0005
732.143	-0.0003
732.461	-0.0054
732.779	-0.0066
733.097	-0.0083
733.415	-0.0072
733.733	-0.0085
734.051	-0.0083
734.369	-0.0073
734.687	-0.0066
735.005	-0.0038
735.322	-0.0122
735.64	-0.0148
735.957	-0.0178
736.275	-0.0127
736.592	-0.0106
736.91	-0.0111
737.227	-0.0111
737.544	-0.0124
737.862	-0.0118
738.179	-0.0066
738.496	-0.0049
738.813	-0.0055
739.13	-0.0112
739.447	-0.0083
739.764	-0.0084
740.081	-0.0097
740.398	-0.0153
740.714	-0.0114
741.031	-0.0113
741.348	-0.01
741.664	-0.0063
741.981	-0.0096
742.297	-0.0112
742.614	-0.0154
742.93	-0.0093
743.246	-0.0066
743.563	-0.0114
743.879	-0.0143
744.195	-0.0168
744.511	-0.0086
744.827	-0.009
745.143	-0.0061
745.459	-0.0109
745.775	-0.0062
746.091	-0.0055
746.406	-0.0055
746.722	-0.0085
747.038	-0.0116
747.353	-0.0079
747.669	-0.0047
747.984	-0.0026
748.3	-0.0033
748.615	-0.0068
748.93	-0.0092
749.246	-0.0078
749.561	-0.0056
749.876	-0.0011
750.191	-0.0039
750.506	-0.0108
750.821	-0.0128
751.136	-0.0117
751.451	-0.0034
751.766	-0.0074
752.08	-0.0142
752.395	-0.0168
752.71	-0.0098
753.024	-0.009
753.339	-0.0109
753.653	-0.0134
753.968	-0.0093
754.282	-0.0034
754.596	-0.0031
754.911	-0.0111
755.225	-0.0143
755.539	-0.0119
755.853	-0.003
756.167	-0.0047
756.481	-0.0052
756.795	-0.0086
757.109	-0.0091
757.423	-0.0156
757.736	-0.0087
758.05	-0.0064
758.364	-0.003
758.677	-0.0059
758.991	-0.008
759.304	-0.011
759.618	-0.0141
759.931	-0.0157
760.244	-0.0151
760.558	-0.0156
760.871	-0.0098
761.184	-0.004
761.497	0.0013
761.81	-0.0042
762.123	-0.0097
762.436	-0.0123
762.749	-0.0088
763.062	-0.0088
763.374	-0.0078
763.687	-0.0075
764	-0.0084
764.312	-0.0082
764.625	-0.0094
764.937	-0.0077
765.25	-0.0068
765.562	-0.0069
765.874	-0.0061
766.186	-0.0101
766.499	-0.0136
766.811	-0.016
767.123	-0.0169
767.435	-0.0127
767.747	-0.0098
768.059	-0.0045
768.37	-0.0061
768.682	-0.008
768.994	-0.0139
769.306	-0.0125
769.617	-0.0105
769.929	-0.0104
770.24	-0.0102
770.552	-0.0138
770.863	-0.0119
771.174	-0.014
771.486	-0.011
771.797	-0.0091
772.108	-0.0139
772.419	-0.0152
772.73	-0.0131
773.041	-0.0091
773.352	-0.0065
773.663	-0.0088
773.974	-0.0018
774.285	-0.0044
774.595	-0.0018
774.906	-0.0109
775.217	-0.0113
775.527	-0.017
775.838	-0.0163
776.148	-0.0165
776.458	-0.0126
776.769	-0.01
777.079	-0.012
777.389	-0.0176
777.699	-0.012
778.009	-0.0092
778.319	-0.002
778.629	-0.0081
778.939	-0.0089
779.249	-0.0084
779.559	-0.0093
779.869	-0.0045
780.178	-0.0088
780.488	-0.006
780.798	-0.0151
781.107	-0.0176
781.417	-0.0164
781.726	-0.0117
782.035	-0.0089
782.345	-0.0101
782.654	-0.0136
782.963	-0.015
783.272	-0.016
783.581	-0.0103
783.89	-0.0067
784.199	-0.0045
784.508	-0.0052
784.817	-0.0056
785.126	-0.0062
785.434	-0.0092
785.743	-0.0062
786.052	-0.0057
786.36	-0.0119
786.669	-0.0175
786.977	-0.0233
787.285	-0.0095
787.594	-0.0068
787.902	-0.0054
788.21	-0.013
788.518	-0.0133
788.826	-0.0098
789.135	-0.0117
789.442	-0.0166
789.75	-0.0173
790.058	-0.0099
790.366	-0.0139
790.674	-0.012
790.981	-0.0146
791.289	-0.0099
791.597	-0.0127
791.904	-0.007
792.212	-0.0036
792.519	-0.0029
792.826	-0.0105
793.134	-0.0137
793.441	-0.013
793.748	-0.0079
794.055	-0.005
794.362	-0.0053
794.669	-0.0128
794.976	-0.0102
795.283	-0.015
795.59	-0.0065
795.897	-0.0096
796.203	-0.009
796.51	-0.0096
796.817	-0.014
797.123	-0.0074
797.43	-0.007
797.736	-0.0023
798.042	-0.0039
798.349	-0.0061
798.655	-0.0055
798.961	-0.0122
799.267	-0.0125
799.573	-0.0128
799.879	-0.0124
800.185	-0.011
800.491	-0.0098
800.797	-0.0065
801.103	-0.005
801.408	-0.0069
801.714	-0.0071
802.02	-0.0114
802.325	-0.0094
802.631	-0.0085
802.936	-0.0058
803.242	-0.0047
803.547	-0.0067
803.852	-0.003
804.157	-0.0035
804.462	-0.0027
804.768	-0.0073
805.073	-0.0134
805.378	-0.0107
805.682	-0.0131
805.987	-0.0152
806.292	-0.0209
806.597	-0.0201
806.902	-0.0131
807.206	-0.0161
807.511	-0.0132
807.815	-0.0163
808.12	-0.0052
808.424	0.0011
808.728	0.0026
809.033	0.0004
809.337	-0.0024
809.641	0.0005
809.945	-0.0032
810.249	-0.0083
810.553	-0.0085
810.857	-0.0035
811.161	-0.0008
811.465	-0.0045
811.768	-0.0004
812.072	-0.0014
812.376	0.0014
812.679	-0.0067
812.983	-0.0039
813.286	-0.0047
813.59	-0.0073
813.893	-0.0075
814.196	-0.0134
814.499	-0.0133
814.803	-0.0216
815.106	-0.0187
815.409	-0.017
815.712	-0.0085
816.015	-0.0092
816.318	-0.01
816.62	-0.0174
816.923	-0.0164
817.226	-0.0084
817.528	-0.0114
817.831	-0.008
818.133	-0.0094
818.436	0.0005
818.738	0.0044
819.041	0.001
819.343	-0.0049
819.645	-0.0097
819.947	-0.0151
820.249	-0.0105
820.551	-0.0099
820.853	-0.0009
821.155	-0.003
821.457	-0.0098
821.759	-0.0129
822.061	-0.0117
822.362	-0.0113
822.664	-0.0096
822.966	-0.0092
823.267	-0.0046
823.569	-0.0122
823.87	-0.0139
824.171	-0.0172
824.473	-0.0076
824.774	-0.0069
825.075	-0.0049
825.376	-0.0136
825.677	-0.0151
825.978	-0.0181
826.279	-0.0177
826.58	-0.012
826.881	-0.0149
827.181	-0.0168
827.482	-0.0177
827.783	-0.0073
828.083	-0.0011
828.384	-0.0049
828.684	-0.0127
828.985	-0.0125
829.285	-0.0117
829.585	-0.0079
829.885	-0.0117
830.185	-0.0062
830.486	-0.0075
830.786	-0.0106
831.086	-0.0159
831.385	-0.008
831.685	-0.0016
831.985	-0.0177
832.285	-0.0304
832.585	-0.0287
832.884	-0.0176
833.184	-0.0147
833.483	-0.0214
833.783	-0.0135
834.082	-0.0136
834.381	-0.0065
834.681	-0.0109
834.98	-0.0029
835.279	-0.0065
835.578	-0.0106
835.877	-0.0143
836.176	-0.0114
836.475	-0.0099
836.774	-0.0129
837.072	-0.0182
837.371	-0.0179
837.67	-0.0176
837.968	-0.0164
838.267	-0.0087
838.565	0.0009
838.864	0.0045
839.162	-0.0028
839.46	-0.0042
839.759	-0.0022
840.057	-0.0006
840.355	-0.0121
840.653	-0.0174
840.951	-0.0226
841.249	-0.0142
841.547	-0.0178
841.845	-0.0141
842.142	-0.019
842.44	-0.0178
842.738	-0.019
843.035	-0.0163
843.333	-0.0153
843.63	-0.0173
843.928	-0.0201
844.225	-0.0096
844.522	-0.0007
844.82	-0.0056
845.117	-0.0042
845.414	-0.0028
845.711	0.005
846.008	0.0069
846.305	-0.0082
846.602	-0.0117
846.898	-0.0207
847.195	-0.0187
847.492	-0.0235
847.788	-0.0246
848.085	-0.0204
848.382	0.0011
848.678	-0.0126
848.974	-0.0081
849.271	-0.0204
849.567	-0.0008
849.863	-0.0018
850.159	-0.0073
850.455	-0.0237
850.751	-0.0224
851.047	-0.0287
851.343	-0.0152
851.639	-0.0186
851.935	-0.0093
852.23	-0.0079
852.526	-0.016
852.822	-0.0108
853.117	-0.0162
853.413	0.0038
853.708	0.0018
854.003	0.0145
854.299	-0.0048
854.594	-0.0037
854.889	-0.0223
855.184	-0.0133
855.479	-0.0242
855.774	-0.0222
856.069	-0.0392
856.364	-0.0405
856.659	-0.0241
856.954	-0.0015
857.248	-0.0013
857.543	-0.0199
857.837	-0.0415
858.132	-0.0111
858.426	-0.0037
858.721	0.0008
859.015	-0.0238
859.309	-0.0144
859.604	-0.0081
859.898	0.0099
860.192	0.0154
860.486	0.0213
860.78	0.0314
861.074	0.0296
861.367	0.0111
861.661	-0.0159
861.955	-0.0362
862.248	-0.0207
862.542	-0.0215
862.836	-0.0087
863.129	-0.0187
863.422	-0.0226
863.716	-0.0348
864.009	-0.0232
864.302	-0.0186
864.595	-0.0051
864.889	-0.0124
865.182	-0.0212
865.475	-0.0379
865.767	-0.0363
866.06	-0.04
866.353	-0.0323
866.646	-0.0134
866.938	-0.0201
867.231	-0.0059
867.524	-0.0136
867.816	-0.0002
868.109	-0.0197
868.401	-0.0287
868.693	-0.0152
868.985	0.0155
869.278	0.0228
869.57	0.0144
869.862	0.0058
870.154	0.023
870.446	0.016
870.738	-0.0085
871.029	-0.0058
871.321	0.0034
871.613	0.0182
871.904	-0.0083
872.196	-0.0196
872.487	-0.0369
872.779	-0.0272
873.07	-0.0175
873.362	-0.0149
873.653	-0.0345
873.944	-0.012
874.235	0.0094
874.526	0.0188
874.817	0.0161
875.108	-0.0064
875.399	-0.0179
875.69	-0.0372
875.981	-0.0658
876.271	-0.0505
876.562	-0.0747
876.853	-0.0356
877.143	-0.0297
877.434	-0.0141
877.724	-0.0429
878.014	-0.0574
878.305	-0.0524
878.595	-0.0421
878.885	-0.0459
879.175	-0.0466
879.465	-0.0257
879.755	-0.0204
880.045	-0.0066
880.335	-0.0016
880.624	0.0077
880.914	0.0077
