Data from 12-1-SS01MU_080917_1a_Absorbance_10-59-25-221.txt Node
Date: Fri Aug 11 10:59:25 MDT 2017
User: Tank Lab
Spectrometer: FLMS01220
Trigger mode: 0
Integration Time (sec): 1.000000E-1
Scans to average: 10
Electric dark correction enabled: true
Nonlinearity correction enabled: false
Boxcar width: 1
XAxis mode: Wavelengths
Number of Pixels in Spectrum: 2048
>>>>>Begin Spectral Data<<<<<
179.47	0.0167
179.856	0.0167
180.241	-0.0129
180.626	-0.2988
181.011	-0
181.396	-0.214
181.781	-0.1156
182.166	0.0954
182.551	-0
182.936	-0
183.321	-0
183.706	-0
184.091	-0
184.476	-0.4767
184.86	0.2932
185.245	0.4131
185.63	-0
186.015	1.5611
186.399	-0
186.784	-0
187.169	1.8016
187.553	-0
187.938	0.721
188.322	0.4575
188.707	0.3303
189.091	0.3232
189.475	0.3839
189.86	0.3786
190.244	0.418
190.629	0.3535
191.013	0.4156
191.397	0.4576
191.781	0.6235
192.165	0.7813
192.55	0.9015
192.934	0.9411
193.318	0.9013
193.702	0.9168
194.086	0.9034
194.47	0.9105
194.854	0.9745
195.238	1.0442
195.622	1.0892
196.006	1.0992
196.389	1.1147
196.773	1.1825
197.157	1.1935
197.541	1.2048
197.924	1.1789
198.308	1.1784
198.692	1.2015
199.075	1.2017
199.459	1.2634
199.843	1.2457
200.226	1.2694
200.61	1.2934
200.993	1.3367
201.376	1.3495
201.76	1.3407
202.143	1.3409
202.527	1.3354
202.91	1.3448
203.293	1.3762
203.676	1.4867
204.059	1.4328
204.443	1.394
204.826	1.328
205.209	1.3571
205.592	1.3612
205.975	1.3926
206.358	1.3961
206.741	1.369
207.124	1.3684
207.507	1.3803
207.89	1.4034
208.273	1.3908
208.655	1.3861
209.038	1.4042
209.421	1.4071
209.804	1.4004
210.186	1.416
210.569	1.4199
210.951	1.4378
211.334	1.4238
211.717	1.4869
212.099	1.4986
212.482	1.5473
212.864	1.5265
213.246	1.5271
213.629	1.5113
214.011	1.4613
214.393	1.4497
214.776	1.4423
215.158	1.4737
215.54	1.4714
215.922	1.4662
216.305	1.4492
216.687	1.4451
217.069	1.4638
217.451	1.4812
217.833	1.4822
218.215	1.4662
218.597	1.4292
218.979	1.4369
219.361	1.4413
219.742	1.4676
220.124	1.4775
220.506	1.4624
220.888	1.4953
221.27	1.4793
221.651	1.4747
222.033	1.4425
222.415	1.4271
222.796	1.4268
223.178	1.4221
223.559	1.4309
223.941	1.4328
224.322	1.4331
224.704	1.4252
225.085	1.4243
225.466	1.4188
225.848	1.4404
226.229	1.4643
226.61	1.4653
226.992	1.4311
227.373	1.4254
227.754	1.4242
228.135	1.4347
228.516	1.4243
228.897	1.4236
229.278	1.4199
229.659	1.4118
230.04	1.4075
230.421	1.3982
230.802	1.3944
231.183	1.3804
231.564	1.3782
231.944	1.3642
232.325	1.363
232.706	1.3602
233.087	1.3598
233.467	1.3578
233.848	1.3341
234.229	1.3294
234.609	1.3215
234.99	1.3294
235.37	1.3331
235.751	1.3364
236.131	1.3478
236.511	1.3434
236.892	1.3301
237.272	1.32
237.652	1.3078
238.033	1.3042
238.413	1.2904
238.793	1.2923
239.173	1.289
239.553	1.2913
239.933	1.2767
240.313	1.2803
240.694	1.2828
241.074	1.2917
241.453	1.2783
241.833	1.261
242.213	1.25
242.593	1.2485
242.973	1.247
243.353	1.2517
243.732	1.2527
244.112	1.2456
244.492	1.2244
244.872	1.2164
245.251	1.2119
245.631	1.2072
246.01	1.205
246.39	1.2117
246.769	1.2155
247.149	1.2037
247.528	1.1884
247.908	1.1745
248.287	1.1749
248.666	1.1705
249.045	1.1737
249.425	1.1644
249.804	1.1597
250.183	1.1573
250.562	1.1608
250.941	1.1592
251.32	1.1559
251.699	1.1535
252.078	1.1522
252.457	1.148
252.836	1.1425
253.215	1.1357
253.594	1.1331
253.973	1.1262
254.352	1.1281
254.731	1.1244
255.109	1.1151
255.488	1.109
255.867	1.1035
256.245	1.108
256.624	1.1049
257.002	1.1026
257.381	1.0958
257.759	1.095
258.138	1.0957
258.516	1.0946
258.895	1.0889
259.273	1.0814
259.651	1.0764
260.03	1.0734
260.408	1.0729
260.786	1.0701
261.164	1.0666
261.542	1.0641
261.921	1.0572
262.299	1.0484
262.677	1.0397
263.055	1.0392
263.433	1.0422
263.811	1.0375
264.188	1.035
264.566	1.0307
264.944	1.0294
265.322	1.024
265.7	1.0154
266.077	1.0089
266.455	1.0062
266.833	1.0067
267.21	1.0029
267.588	0.9988
267.966	0.993
268.343	0.9905
268.721	0.983
269.098	0.9823
269.475	0.9751
269.853	0.9725
270.23	0.9678
270.607	0.9704
270.985	0.9685
271.362	0.9559
271.739	0.9453
272.116	0.936
272.494	0.9367
272.871	0.9363
273.248	0.9326
273.625	0.9303
274.002	0.925
274.379	0.9189
274.756	0.9108
275.132	0.9076
275.509	0.9082
275.886	0.9052
276.263	0.8998
276.64	0.8935
277.016	0.8898
277.393	0.8839
277.77	0.8807
278.146	0.8768
278.523	0.872
278.899	0.8708
279.276	0.8671
279.652	0.8651
280.029	0.8612
280.405	0.8565
280.782	0.8552
281.158	0.8498
281.534	0.8475
281.91	0.8412
282.287	0.8371
282.663	0.8338
283.039	0.8299
283.415	0.8225
283.791	0.8163
284.167	0.8138
284.543	0.8166
284.919	0.8129
285.295	0.8066
285.671	0.7966
286.047	0.7928
286.423	0.7878
286.799	0.786
287.174	0.7811
287.55	0.7808
287.926	0.7766
288.301	0.7753
288.677	0.7696
289.053	0.7661
289.428	0.7623
289.804	0.7598
290.179	0.7547
290.555	0.7507
290.93	0.7441
291.305	0.7398
291.681	0.7361
292.056	0.7355
292.431	0.7334
292.806	0.7315
293.182	0.7273
293.557	0.726
293.932	0.719
294.307	0.7165
294.682	0.7078
295.057	0.7049
295.432	0.7025
295.807	0.702
296.182	0.698
296.557	0.6921
296.932	0.6893
297.306	0.6857
297.681	0.6828
298.056	0.6792
298.43	0.6768
298.805	0.6735
299.18	0.6684
299.554	0.6659
299.929	0.6607
300.303	0.6581
300.678	0.6526
301.052	0.6496
301.427	0.6466
301.801	0.6461
302.175	0.6421
302.55	0.6354
302.924	0.6297
303.298	0.6257
303.672	0.6251
304.046	0.6248
304.421	0.6223
304.795	0.6213
305.169	0.6178
305.543	0.6152
305.917	0.6107
306.291	0.6057
306.664	0.5999
307.038	0.5947
307.412	0.5906
307.786	0.5914
308.16	0.5895
308.533	0.59
308.907	0.5861
309.281	0.5845
309.654	0.5806
310.028	0.5746
310.401	0.5696
310.775	0.5643
311.148	0.562
311.522	0.5629
311.895	0.5622
312.268	0.5626
312.642	0.5559
313.015	0.5511
313.388	0.5462
313.761	0.543
314.135	0.5398
314.508	0.5358
314.881	0.5343
315.254	0.5304
315.627	0.5309
316	0.5313
316.373	0.5309
316.746	0.5269
317.118	0.5201
317.491	0.5171
317.864	0.5138
318.237	0.512
318.61	0.5066
318.982	0.5032
319.355	0.4992
319.727	0.4969
320.1	0.4959
320.473	0.4927
320.845	0.4879
321.218	0.4854
321.59	0.4828
321.962	0.4832
322.335	0.4785
322.707	0.4762
323.079	0.4726
323.452	0.4702
323.824	0.466
324.196	0.466
324.568	0.4645
324.94	0.463
325.312	0.4581
325.684	0.4545
326.056	0.4536
326.428	0.4495
326.8	0.4493
327.172	0.4446
327.544	0.4467
327.915	0.4408
328.287	0.4402
328.659	0.4377
329.031	0.4387
329.402	0.435
329.774	0.4328
330.145	0.4259
330.517	0.425
330.888	0.4207
331.26	0.4215
331.631	0.4159
332.003	0.4129
332.374	0.4092
332.745	0.4101
333.117	0.407
333.488	0.4028
333.859	0.4009
334.23	0.3997
334.601	0.4013
334.972	0.3982
335.343	0.3954
335.714	0.3908
336.085	0.3869
336.456	0.385
336.827	0.3824
337.198	0.3829
337.569	0.3798
337.94	0.3776
338.31	0.3759
338.681	0.3764
339.052	0.3752
339.422	0.3712
339.793	0.3667
340.164	0.3634
340.534	0.3614
340.905	0.3586
341.275	0.3546
341.645	0.3521
342.016	0.3514
342.386	0.3511
342.756	0.3493
343.127	0.3479
343.497	0.3474
343.867	0.3426
344.237	0.341
344.607	0.3394
344.977	0.3407
345.347	0.3355
345.717	0.3337
346.087	0.3312
346.457	0.3308
346.827	0.3274
347.197	0.3258
347.567	0.3227
347.936	0.3219
348.306	0.3208
348.676	0.3244
349.046	0.3209
349.415	0.3193
349.785	0.3141
350.154	0.3115
350.524	0.3079
350.893	0.3047
351.263	0.3036
351.632	0.3007
352.001	0.2978
352.371	0.2982
352.74	0.297
353.109	0.2958
353.478	0.2928
353.847	0.2896
354.217	0.2868
354.586	0.283
354.955	0.2804
355.324	0.2797
355.693	0.2788
356.062	0.279
356.43	0.2796
356.799	0.2768
357.168	0.2744
357.537	0.2694
357.906	0.2688
358.274	0.2675
358.643	0.2671
359.011	0.2667
359.38	0.2641
359.749	0.2633
360.117	0.2594
360.486	0.2588
360.854	0.2564
361.222	0.2544
361.591	0.2514
361.959	0.2475
362.327	0.2467
362.695	0.2475
363.064	0.2489
363.432	0.2459
363.8	0.2408
364.168	0.2384
364.536	0.2376
364.904	0.2384
365.272	0.2374
365.64	0.2355
366.008	0.2308
366.376	0.2274
366.743	0.2286
367.111	0.2289
367.479	0.228
367.847	0.2241
368.214	0.2215
368.582	0.2195
368.949	0.2194
369.317	0.2178
369.684	0.2171
370.052	0.2162
370.419	0.2155
370.787	0.2112
371.154	0.2086
371.521	0.2068
371.889	0.2045
372.256	0.2012
372.623	0.1984
372.99	0.2022
373.357	0.2003
373.724	0.2007
374.091	0.1947
374.458	0.195
374.825	0.1953
375.192	0.1942
375.559	0.1927
375.926	0.1891
376.293	0.1886
376.659	0.1898
377.026	0.19
377.393	0.1894
377.759	0.1858
378.126	0.183
378.492	0.1806
378.859	0.1789
379.225	0.1791
379.592	0.1777
379.958	0.176
380.325	0.1736
380.691	0.1749
381.057	0.1745
381.423	0.1727
381.79	0.1689
382.156	0.1674
382.522	0.1652
382.888	0.1669
383.254	0.1656
383.62	0.1693
383.986	0.1653
384.352	0.1639
384.718	0.1591
385.084	0.1604
385.449	0.159
385.815	0.1579
386.181	0.1537
386.547	0.1524
386.912	0.1517
387.278	0.1521
387.643	0.1514
388.009	0.1489
388.374	0.1461
388.74	0.1445
389.105	0.144
389.471	0.1447
389.836	0.1451
390.201	0.1435
390.566	0.1433
390.932	0.1395
391.297	0.1379
391.662	0.1356
392.027	0.1363
392.392	0.1387
392.757	0.1387
393.122	0.1362
393.487	0.1326
393.852	0.133
394.217	0.1318
394.582	0.1313
394.946	0.1285
395.311	0.129
395.676	0.1269
396.04	0.1238
396.405	0.1239
396.77	0.123
397.134	0.1259
397.499	0.1241
397.863	0.1241
398.227	0.1216
398.592	0.1214
398.956	0.1201
399.32	0.1176
399.685	0.1161
400.049	0.1181
400.413	0.1178
400.777	0.1139
401.141	0.1108
401.505	0.1103
401.869	0.1137
402.233	0.1157
402.597	0.1151
402.961	0.1107
403.325	0.1104
403.689	0.1103
404.053	0.1087
404.416	0.1064
404.78	0.1071
405.144	0.1095
405.507	0.1078
405.871	0.1085
406.234	0.1079
406.598	0.1064
406.961	0.1049
407.325	0.1049
407.688	0.1024
408.051	0.0976
408.415	0.0966
408.778	0.0971
409.141	0.0992
409.504	0.0965
409.867	0.097
410.23	0.0962
410.593	0.0988
410.956	0.0992
411.319	0.0965
411.682	0.0944
412.045	0.0925
412.408	0.0949
412.771	0.0961
413.134	0.0957
413.496	0.0921
413.859	0.089
414.222	0.0878
414.584	0.0886
414.947	0.0871
415.309	0.0891
415.672	0.088
416.034	0.0887
416.396	0.0846
416.759	0.0858
417.121	0.0854
417.483	0.088
417.846	0.0874
418.208	0.0861
418.57	0.0843
418.932	0.0836
419.294	0.0842
419.656	0.0841
420.018	0.0825
420.38	0.0834
420.742	0.0812
421.104	0.0784
421.466	0.0776
421.827	0.0776
422.189	0.0785
422.551	0.0749
422.912	0.0746
423.274	0.073
423.636	0.0727
423.997	0.0728
424.359	0.0749
424.72	0.0747
425.081	0.0718
425.443	0.0694
425.804	0.0693
426.165	0.0702
426.527	0.0721
426.888	0.0718
427.249	0.0709
427.61	0.0692
427.971	0.0697
428.332	0.068
428.693	0.0702
429.054	0.0705
429.415	0.0726
429.776	0.0707
430.137	0.0687
430.498	0.067
430.858	0.0644
431.219	0.064
431.58	0.066
431.94	0.0668
432.301	0.0638
432.661	0.0605
433.022	0.0598
433.382	0.0624
433.743	0.0626
434.103	0.0617
434.463	0.0622
434.824	0.0637
435.184	0.064
435.544	0.0596
435.904	0.0582
436.264	0.058
436.624	0.0593
436.985	0.0564
437.345	0.0582
437.704	0.0586
438.064	0.06
438.424	0.0571
438.784	0.0575
439.144	0.0569
439.504	0.0563
439.863	0.0548
440.223	0.0554
440.583	0.0565
440.942	0.0573
441.302	0.0543
441.661	0.0525
442.021	0.0511
442.38	0.0548
442.739	0.0575
443.099	0.0572
443.458	0.0565
443.817	0.0556
444.176	0.0564
444.536	0.0527
444.895	0.0479
445.254	0.0469
445.613	0.0482
445.972	0.0478
446.331	0.0491
446.69	0.0497
447.049	0.052
447.407	0.0508
447.766	0.0489
448.125	0.0471
448.484	0.0448
448.842	0.0459
449.201	0.0467
449.559	0.0465
449.918	0.0464
450.276	0.0459
450.635	0.0476
450.993	0.0446
451.352	0.0442
451.71	0.0423
452.068	0.0436
452.426	0.042
452.785	0.0443
453.143	0.0449
453.501	0.0439
453.859	0.0403
454.217	0.0392
454.575	0.0413
454.933	0.0424
455.291	0.0455
455.649	0.0466
456.006	0.0468
456.364	0.0444
456.722	0.0423
457.079	0.0422
457.437	0.0414
457.795	0.0413
458.152	0.0396
458.51	0.0403
458.867	0.0435
459.225	0.0464
459.582	0.0471
459.939	0.0445
460.297	0.0442
460.654	0.0413
461.011	0.0395
461.368	0.0371
461.725	0.037
462.082	0.0368
462.44	0.0371
462.797	0.0377
463.153	0.0402
463.51	0.0373
463.867	0.036
464.224	0.0354
464.581	0.0371
464.938	0.0379
465.294	0.0373
465.651	0.0392
466.008	0.038
466.364	0.0371
466.721	0.0353
467.077	0.0357
467.434	0.0351
467.79	0.0324
468.146	0.0345
468.503	0.0351
468.859	0.0358
469.215	0.035
469.571	0.0336
469.927	0.0303
470.284	0.0272
470.64	0.0262
470.996	0.0304
471.352	0.0323
471.707	0.0326
472.063	0.0334
472.419	0.0345
472.775	0.0366
473.131	0.0345
473.486	0.0328
473.842	0.0303
474.198	0.0303
474.553	0.0298
474.909	0.0306
475.264	0.031
475.62	0.0311
475.975	0.0315
476.331	0.0307
476.686	0.0267
477.041	0.0263
477.396	0.0275
477.752	0.0307
478.107	0.0321
478.462	0.0331
478.817	0.0353
479.172	0.0341
479.527	0.0314
479.882	0.0322
480.237	0.03
480.591	0.0278
480.946	0.0257
481.301	0.0273
481.656	0.0299
482.01	0.0286
482.365	0.0292
482.72	0.0286
483.074	0.0278
483.429	0.0288
483.783	0.0287
484.137	0.0283
484.492	0.0261
484.846	0.0265
485.2	0.0278
485.555	0.0257
485.909	0.0257
486.263	0.0283
486.617	0.0289
486.971	0.0282
487.325	0.0254
487.679	0.0254
488.033	0.024
488.387	0.0251
488.741	0.0264
489.094	0.0263
489.448	0.0246
489.802	0.0239
490.156	0.0262
490.509	0.0262
490.863	0.0251
491.216	0.0236
491.57	0.0213
491.923	0.0226
492.277	0.0222
492.63	0.024
492.983	0.0219
493.337	0.0238
493.69	0.0252
494.043	0.0263
494.396	0.024
494.749	0.0248
495.102	0.024
495.455	0.0216
495.808	0.0195
496.161	0.0213
496.514	0.0243
496.867	0.0237
497.22	0.022
497.572	0.0205
497.925	0.0205
498.278	0.0192
498.63	0.0193
498.983	0.0183
499.335	0.0187
499.688	0.0191
500.04	0.0202
500.393	0.0229
500.745	0.0221
501.097	0.0231
501.449	0.0238
501.802	0.0253
502.154	0.0226
502.506	0.02
502.858	0.0193
503.21	0.0209
503.562	0.0213
503.914	0.022
504.266	0.0207
504.618	0.0218
504.969	0.0204
505.321	0.0212
505.673	0.0211
506.025	0.0223
506.376	0.0238
506.728	0.0226
507.079	0.0209
507.431	0.0193
507.782	0.0176
508.134	0.0179
508.485	0.0178
508.836	0.0171
509.188	0.0179
509.539	0.0173
509.89	0.0192
510.241	0.0183
510.592	0.0158
510.943	0.0166
511.294	0.0148
511.645	0.0167
511.996	0.0155
512.347	0.0171
512.698	0.0142
513.049	0.0109
513.399	0.011
513.75	0.015
514.101	0.0161
514.451	0.0166
514.802	0.0137
515.152	0.0147
515.503	0.0155
515.853	0.0149
516.203	0.0149
516.554	0.0128
516.904	0.0147
517.254	0.0158
517.604	0.0154
517.955	0.0156
518.305	0.0164
518.655	0.0173
519.005	0.0186
519.355	0.0165
519.705	0.0162
520.055	0.0136
520.404	0.0117
520.754	0.009
521.104	0.0088
521.454	0.0104
521.803	0.0127
522.153	0.0137
522.502	0.0146
522.852	0.0159
523.201	0.0138
523.551	0.0108
523.9	0.0088
524.249	0.0116
524.599	0.0132
524.948	0.0113
525.297	0.0093
525.646	0.0095
525.995	0.0102
526.344	0.0148
526.694	0.0125
527.042	0.0139
527.391	0.0095
527.74	0.012
528.089	0.0096
528.438	0.0109
528.787	0.0109
529.135	0.0098
529.484	0.0104
529.833	0.0113
530.181	0.0149
530.53	0.0152
530.878	0.0125
531.227	0.0135
531.575	0.0105
531.923	0.0122
532.271	0.0095
532.62	0.0089
532.968	0.0073
533.316	0.0075
533.664	0.0089
534.012	0.0101
534.36	0.0094
534.708	0.0082
535.056	0.0073
535.404	0.009
535.752	0.0096
536.1	0.0088
536.447	0.0073
536.795	0.0095
537.143	0.0091
537.49	0.011
537.838	0.0072
538.185	0.0098
538.533	0.0081
538.88	0.0092
539.228	0.0049
539.575	0.0062
539.922	0.0097
540.269	0.0111
540.617	0.0116
540.964	0.0081
541.311	0.0086
541.658	0.007
542.005	0.0082
542.352	0.0066
542.699	0.0069
543.045	0.0077
543.392	0.0084
543.739	0.0093
544.086	0.0065
544.432	0.0121
544.779	0.0118
545.126	0.0118
545.472	0.0082
545.819	0.0078
546.165	0.0099
546.512	0.01
546.858	0.0077
547.204	0.0061
547.55	0.007
547.897	0.0078
548.243	0.0062
548.589	-0.0012
548.935	-0.0021
549.281	-0.0012
549.627	0.0027
549.973	0.0042
550.319	0.0058
550.665	0.0086
551.01	0.0058
551.356	0.0053
551.702	0.0045
552.048	0.0083
552.393	0.009
552.739	0.0074
553.084	0.0041
553.43	0.0045
553.775	0.0067
554.12	0.0099
554.466	0.0076
554.811	0.0085
555.156	0.0076
555.502	0.0089
555.847	0.0075
556.192	0.0075
556.537	0.0053
556.882	0.0045
557.227	0.0045
557.572	0.0064
557.917	0.0044
558.261	0.0048
558.606	0.0078
558.951	0.0063
559.295	0.0049
559.64	0.0029
559.985	0.0104
560.329	0.0131
560.674	0.0113
561.018	0.007
561.363	0.0028
561.707	0.0017
562.051	0.0035
562.395	0.006
562.74	0.0043
563.084	0.0024
563.428	0.0019
563.772	0.0041
564.116	0.0052
564.46	0.0033
564.804	0.0024
565.148	0.0018
565.492	0.0017
565.835	0.0033
566.179	0.0015
566.523	0.0045
566.866	0.0052
567.21	0.0029
567.554	-0.0024
567.897	-0.0035
568.24	0.0019
568.584	0.0062
568.927	0.0043
569.271	0.0017
569.614	0.0022
569.957	0.0044
570.3	0.0042
570.643	0.0031
570.986	0.0027
571.329	0.0041
571.672	0.0042
572.015	0.003
572.358	0.0016
572.701	0.0046
573.044	0.006
573.387	0.0095
573.729	0.0068
574.072	0.0048
574.414	0.0021
574.757	-0.0012
575.099	-0.0018
575.442	-0.0014
575.784	0.001
576.127	0.0038
576.469	0.0026
576.811	0.0032
577.153	-0.0003
577.496	0.0001
577.838	-0.0009
578.18	0.0002
578.522	0.0008
578.864	0.0009
579.206	0.0015
579.548	-0.0009
579.889	-0.0008
580.231	0.001
580.573	0.0036
580.915	0.004
581.256	0.0012
581.598	-0.0021
581.939	-0.0017
582.281	-0.002
582.622	0.0011
582.964	-0.0013
583.305	0.0002
583.646	0.0012
583.988	0.0048
584.329	0.0038
584.67	0.0039
585.011	0.0022
585.352	0.0032
585.693	0.0006
586.034	0.0015
586.375	0
586.716	-0.0016
587.057	-0.0037
587.398	0
587.738	0.0009
588.079	0.0012
588.42	-0.0005
588.76	-0.002
589.101	-0.0012
589.441	0.0015
589.782	0.0025
590.122	0.0022
590.463	0.0008
590.803	0.0006
591.143	-0.0018
591.483	-0.0049
591.823	-0.0029
592.164	-0.0016
592.504	-0.0006
592.844	-0.002
593.184	-0.0021
593.523	-0.0037
593.863	-0.002
594.203	-0.0018
594.543	-0.0013
594.883	-0.0001
595.222	0.0033
595.562	0.003
595.901	-0.0001
596.241	-0.0007
596.58	0.0008
596.92	0.0024
597.259	0.0021
597.599	0.0025
597.938	0.0024
598.277	0.0013
598.616	0.0003
598.955	0.0008
599.295	-0.0015
599.634	0.0035
599.973	-0.0002
600.312	0.0001
600.65	-0.0042
600.989	0.0013
601.328	0.0053
601.667	0.0051
602.005	0.0026
602.344	0.0001
602.683	-0.0027
603.021	-0.0028
603.36	-0.0044
603.698	-0.0013
604.037	-0.0014
604.375	0.0003
604.713	0.0009
605.052	0.0011
605.39	-0.0003
605.728	0.0007
606.066	-0.0004
606.404	0.0002
606.742	-0.0004
607.08	-0.0024
607.418	-0.0011
607.756	-0.002
608.094	0.0018
608.431	0.002
608.769	0.0006
609.107	0.0008
609.444	-0.0023
609.782	-0.0036
610.12	-0.0051
610.457	-0.0023
610.794	-0.0005
611.132	0.0012
611.469	-0.001
611.806	-0.001
612.144	-0.0035
612.481	-0.0045
612.818	-0.0049
613.155	-0.0037
613.492	-0.0003
613.829	0.0011
614.166	-0.0018
614.503	-0.0019
614.84	-0.0021
615.176	0.0015
615.513	-0.0008
615.85	0.0018
616.187	0.0022
616.523	0.0039
616.86	0.002
617.196	-0.0003
617.533	-0.0018
617.869	-0.0019
618.205	-0.0037
618.542	-0.0064
618.878	-0.0076
619.214	-0.004
619.55	-0.0015
619.886	-0.0012
620.222	0.0015
620.558	0.0027
620.894	0.0062
621.23	0.0001
621.566	-0.0008
621.902	-0.0061
622.238	-0.0027
622.573	-0.0033
622.909	-0.0018
623.244	-0.0038
623.58	-0.0032
623.916	-0.0032
624.251	-0.0003
624.586	0.0004
624.922	-0.0012
625.257	-0.0068
625.592	-0.0095
625.927	-0.0091
626.263	-0.0069
626.598	-0.0064
626.933	-0.0064
627.268	-0.0024
627.603	-0.0008
627.938	0.0039
628.272	0.0019
628.607	0.002
628.942	-0.0038
629.277	-0.0048
629.611	-0.0028
629.946	-0.0022
630.281	-0.0004
630.615	-0.005
630.949	-0.0075
631.284	-0.0058
631.618	-0.0031
631.953	-0.0018
632.287	-0.0092
632.621	-0.0083
632.955	-0.0043
633.289	-0.001
633.623	-0.0053
633.957	-0.008
634.291	-0.0059
634.625	-0.0029
634.959	-0.0027
635.293	-0.0022
635.627	-0.0039
635.96	-0.0005
636.294	0.0007
636.627	0.0001
636.961	-0.0022
637.294	-0.0026
637.628	-0.0009
637.961	-0.0078
638.295	-0.0049
638.628	-0.0052
638.961	-0.0006
639.294	-0.0039
639.628	-0.0039
639.961	-0.0036
640.294	-0.0029
640.627	-0.0021
640.96	-0.0048
641.293	-0.0086
641.625	-0.0069
641.958	0.0001
642.291	0.0011
642.624	-0.0003
642.956	-0.0077
643.289	-0.0057
643.621	-0.0029
643.954	-0.0021
644.286	-0.0061
644.619	-0.0093
644.951	-0.0075
645.283	-0.0024
645.616	-0.0056
645.948	-0.0032
646.28	-0.0049
646.612	-0.0037
646.944	-0.0073
647.276	-0.0061
647.608	-0.0055
647.94	-0.0033
648.272	-0.0002
648.603	0.007
648.935	0.0038
649.267	-0.0034
649.598	-0.0099
649.93	-0.0045
650.261	0.0001
650.593	0.0013
650.924	-0.0023
651.256	-0.001
651.587	0.0022
651.918	0.0043
652.25	0.0012
652.581	-0.0053
652.912	-0.0067
653.243	-0.0077
653.574	-0.0051
653.905	-0.0029
654.236	-0.0017
654.567	-0.0002
654.897	-0.0048
655.228	-0.0081
655.559	-0.0049
655.89	-0.0076
656.22	-0.0061
656.551	-0.0077
656.881	0.0024
657.212	0.006
657.542	0.0082
657.872	0.008
658.203	0.0078
658.533	-0.0014
658.863	-0.0061
659.193	-0.0089
659.523	-0.012
659.853	-0.0146
660.183	-0.0107
660.513	-0.0076
660.843	-0.0013
661.173	-0.0007
661.503	-0.0022
661.833	-0.0062
662.162	-0.0103
662.492	-0.0069
662.822	-0.0075
663.151	-0.0003
663.481	-0.0016
663.81	0.0032
664.139	-0.003
664.469	-0.0031
664.798	-0.0015
665.127	-0.0009
665.456	0.0002
665.785	-0.0018
666.114	-0.0006
666.443	0.0022
666.772	0.0042
667.101	0.0049
667.43	-0.0039
667.759	-0.0069
668.088	-0.0093
668.416	-0.0086
668.745	-0.0106
669.074	-0.0098
669.402	-0.0043
669.731	-0.0001
670.059	-0.0015
670.388	-0.0017
670.716	-0.008
671.044	-0.0052
671.372	-0.0066
671.701	-0.0016
672.029	-0.0059
672.357	-0.0066
672.685	-0.0056
673.013	-0.0044
673.341	-0.0019
673.669	-0.0024
673.996	-0.0008
674.324	0.0014
674.652	-0.0015
674.98	-0.0033
675.307	-0.0029
675.635	-0.0021
675.962	-0.0011
676.29	-0.011
676.617	-0.0111
676.945	-0.0108
677.272	-0.0102
677.599	-0.0102
677.926	-0.0076
678.253	-0.0051
678.581	-0.0046
678.908	-0.0061
679.235	-0.0073
679.561	-0.0078
679.888	-0.0058
680.215	-0.0064
680.542	-0.0019
680.869	-0.0026
681.195	0.0004
681.522	-0.0027
681.849	-0.0019
682.175	-0.0035
682.502	-0.0048
682.828	-0.0102
683.154	-0.0124
683.481	-0.0088
683.807	-0.0053
684.133	-0.0009
684.459	-0.002
684.785	-0.0026
685.111	-0.0045
685.437	-0.0084
685.763	-0.0097
686.089	-0.0052
686.415	-0.0058
686.741	-0.0054
687.067	-0.0058
687.392	-0.0045
687.718	-0.0036
688.043	-0.0045
688.369	-0.0069
688.694	-0.0063
689.02	-0.0052
689.345	-0.004
689.67	-0.0033
689.996	-0.0032
690.321	-0.0037
690.646	-0.0059
690.971	-0.0073
691.296	-0.0045
691.621	-0.0024
691.946	0.0009
692.271	0.0031
692.596	-0.001
692.921	-0.0067
693.245	-0.0097
693.57	-0.0075
693.895	-0.0067
694.219	-0.0079
694.544	-0.0065
694.868	-0.007
695.193	-0.0052
695.517	-0.0069
695.841	-0.0088
696.166	-0.0102
696.49	-0.0103
696.814	-0.0067
697.138	-0.007
697.462	-0.0044
697.786	-0.0058
698.11	-0.0008
698.434	-0.0048
698.758	-0.0075
699.081	-0.0072
699.405	-0.0089
699.729	-0.0018
700.052	-0.0032
700.376	-0.0008
700.7	0.0007
701.023	-0.0031
701.346	-0.0036
701.67	-0.008
701.993	-0.0064
702.316	-0.0048
702.639	-0.0028
702.963	-0.0005
703.286	0.0001
703.609	0.0003
703.932	-0.0018
704.255	-0.0023
704.578	-0.0064
704.9	-0.0101
705.223	-0.0126
705.546	-0.01
705.868	-0.0098
706.191	-0.0071
706.514	-0.013
706.836	-0.0055
707.159	-0.0062
707.481	-0.0033
707.803	-0.0089
708.126	-0.0123
708.448	-0.0079
708.77	-0.0056
709.092	-0.0038
709.414	-0.0052
709.736	-0.0071
710.058	-0.0036
710.38	-0.0033
710.702	-0.001
711.024	-0.002
711.345	0
711.667	-0.0022
711.989	-0.0056
712.31	-0.0079
712.632	-0.0086
712.953	-0.0059
713.275	-0.0036
713.596	-0.0027
713.917	-0.0027
714.239	-0.0075
714.56	-0.0011
714.881	-0.0029
715.202	-0.0007
715.523	-0.0029
715.844	-0.0019
716.165	-0.0037
716.486	-0.0091
716.807	-0.0074
717.128	-0.0036
717.448	-0.0022
717.769	-0.0004
718.09	-0.0041
718.41	0.0017
718.731	0.0015
719.051	0.0011
719.372	-0.0042
719.692	-0.0102
720.012	-0.0139
720.332	-0.0164
720.653	-0.0176
720.973	-0.0132
721.293	-0.0075
721.613	-0.0052
721.933	-0.0026
722.253	-0.0024
722.573	-0.0019
722.892	-0.0051
723.212	-0.0091
723.532	-0.0102
723.851	-0.0096
724.171	-0.0135
724.491	-0.0144
724.81	-0.0157
725.129	-0.0139
725.449	-0.0143
725.768	-0.0125
726.087	-0.0104
726.407	-0.0061
726.726	-0.0067
727.045	-0.0018
727.364	-0.0032
727.683	-0.0006
728.002	0.0003
728.321	-0.0045
728.64	-0.0058
728.958	-0.013
729.277	-0.0094
729.596	-0.0105
729.914	-0.008
730.233	-0.0044
730.551	-0.0001
730.87	-0.0001
731.188	0.0003
731.507	-0.0051
731.825	-0.006
732.143	-0.0063
732.461	-0.0019
732.779	-0.0012
733.097	-0.0013
733.415	-0.0001
733.733	-0.0028
734.051	-0.0075
734.369	-0.0116
734.687	-0.0105
735.005	-0.0078
735.322	-0.0128
735.64	-0.0143
735.957	-0.0153
736.275	-0.0115
736.592	-0.0087
736.91	-0.0072
737.227	-0.0079
737.544	-0.0134
737.862	-0.0164
738.179	-0.0097
738.496	-0.0049
738.813	-0.0022
739.13	-0.0066
739.447	-0.0046
739.764	-0.0064
740.081	-0.0095
740.398	-0.0141
740.714	-0.0131
741.031	-0.0098
741.348	-0.0102
741.664	-0.0065
741.981	-0.0052
742.297	-0.0052
742.614	-0.0066
742.93	-0.0068
743.246	-0.0022
743.563	-0.0073
743.879	-0.0093
744.195	-0.0143
744.511	-0.0096
744.827	-0.0107
745.143	-0.007
745.459	-0.0091
745.775	-0.0058
746.091	-0.0075
746.406	-0.0079
746.722	-0.0089
747.038	-0.0065
747.353	-0.0031
747.669	-0.003
747.984	0
748.3	-0.0017
748.615	-0.004
748.93	-0.0065
749.246	-0.008
749.561	-0.0047
749.876	-0.0049
750.191	-0.0042
750.506	-0.0079
750.821	-0.0109
751.136	-0.0135
751.451	-0.0113
751.766	-0.0122
752.08	-0.0111
752.395	-0.0144
752.71	-0.0117
753.024	-0.0127
753.339	-0.011
753.653	-0.0091
753.968	-0.0024
754.282	-0.0004
754.596	0
754.911	-0.0152
755.225	-0.0148
755.539	-0.0099
755.853	0.0059
756.167	0.003
756.481	-0.0028
756.795	-0.0064
757.109	-0.0041
757.423	-0.0079
757.736	-0.0078
758.05	-0.0088
758.364	-0.0054
758.677	-0.0044
758.991	-0.0068
759.304	-0.0129
759.618	-0.0149
759.931	-0.0119
760.244	-0.0034
760.558	-0.0037
760.871	-0.0045
761.184	-0.0099
761.497	-0.007
761.81	-0.0033
762.123	-0.0036
762.436	-0.0092
762.749	-0.0107
763.062	-0.0091
763.374	-0.0034
763.687	-0.0076
764	-0.0088
764.312	-0.011
764.625	-0.01
764.937	-0.0113
765.25	-0.0153
765.562	-0.0116
765.874	-0.009
766.186	-0.0041
766.499	-0.0084
766.811	-0.0094
767.123	-0.0152
767.435	-0.0123
767.747	-0.0102
768.059	-0.0061
768.37	-0.0056
768.682	-0.0074
768.994	-0.0059
769.306	-0.0044
769.617	0.0008
769.929	-0.0036
770.24	-0.0017
770.552	-0.0047
770.863	-0.0028
771.174	-0.0043
771.486	-0.0038
771.797	-0.0032
772.108	-0.0078
772.419	-0.0116
772.73	-0.012
773.041	-0.0073
773.352	-0.0029
773.663	-0.0056
773.974	-0.0066
774.285	-0.012
774.595	-0.0042
774.906	-0.0096
775.217	-0.0037
775.527	-0.0089
775.838	-0.0068
776.148	-0.0091
776.458	-0.0053
776.769	-0.0046
777.079	-0.0093
777.389	-0.0139
777.699	-0.0087
778.009	-0.0071
778.319	-0.0058
778.629	-0.0153
778.939	-0.0125
779.249	-0.0085
779.559	-0.0059
779.869	-0.0043
780.178	-0.0086
780.488	-0.0066
780.798	-0.0103
781.107	-0.0127
781.417	-0.0095
781.726	-0.0039
782.035	0.0038
782.345	0.0007
782.654	-0.0076
782.963	-0.0104
783.272	-0.0058
783.581	-0.0045
783.89	-0.0036
784.199	-0.0054
784.508	-0.0056
784.817	-0.0078
785.126	-0.01
785.434	-0.0124
785.743	-0.0105
786.052	-0.0082
786.36	-0.0046
786.669	-0.0093
786.977	-0.0168
787.285	-0.0141
787.594	-0.0115
787.902	-0.009
788.21	-0.0128
788.518	-0.0118
788.826	-0.0058
789.135	-0.0079
789.442	-0.0171
789.75	-0.0238
790.058	-0.0155
790.366	-0.0137
790.674	-0.01
790.981	-0.0152
791.289	-0.0122
791.597	-0.0137
791.904	-0.0085
792.212	-0.0065
792.519	-0.0071
792.826	-0.0052
793.134	-0.0058
793.441	-0.0067
793.748	-0.0134
794.055	-0.01
794.362	-0.0054
794.669	-0.0046
794.976	-0.0042
795.283	-0.0156
795.59	-0.0128
795.897	-0.0142
796.203	-0.0076
796.51	-0.0051
796.817	-0.0081
797.123	-0.0067
797.43	-0.0076
797.736	-0.0058
798.042	-0.0038
798.349	-0.0047
798.655	-0.0034
798.961	-0.0029
799.267	-0.006
799.573	-0.0064
799.879	-0.0082
800.185	-0.0087
800.491	-0.0089
800.797	-0.0062
801.103	-0.0009
801.408	-0.0001
801.714	-0.0066
802.02	-0.0156
802.325	-0.0147
802.631	-0.008
802.936	-0.0021
803.242	-0.0063
803.547	-0.0081
803.852	-0.0022
804.157	-0.0027
804.462	-0.0042
804.768	-0.0077
805.073	-0.0098
805.378	-0.0122
805.682	-0.0185
805.987	-0.0168
806.292	-0.011
806.597	-0.0126
806.902	-0.0063
807.206	-0.0134
807.511	-0.0068
807.815	-0.0174
808.12	-0.0029
808.424	-0.001
808.728	0.0055
809.033	-0.0054
809.337	-0.0077
809.641	-0.0013
809.945	-0
810.249	0.0029
810.553	-0.0047
810.857	-0.0006
811.161	-0.0029
811.465	-0.0059
811.768	-0.0024
812.072	-0.0032
812.376	0.0031
812.679	-0
812.983	0.002
813.286	-0.0018
813.59	-0.0108
813.893	-0.0118
814.196	-0.0091
814.499	-0.0097
814.803	-0.0101
815.106	-0.0169
815.409	-0.0089
815.712	-0.009
816.015	-0.0037
816.318	-0.0089
816.62	-0.0124
816.923	-0.0155
817.226	-0.0086
817.528	-0.0109
817.831	0.0023
818.133	0.0024
818.436	0.0067
818.738	-0.0021
819.041	-0.006
819.343	-0.0008
819.645	0.0007
819.947	-0.0029
820.249	-0.0099
820.551	-0.0135
820.853	-0.0031
821.155	0.0001
821.457	-0.0063
821.759	-0.0139
822.061	-0.018
822.362	-0.0097
822.664	-0.0009
822.966	0.0027
823.267	0.0032
823.569	-0.0084
823.87	-0.0122
824.171	-0.0142
824.473	-0.0039
824.774	0.0016
825.075	-0.0062
825.376	-0.0134
825.677	-0.0211
825.978	-0.0176
826.279	-0.011
826.58	-0.002
826.881	0.0022
827.181	-0.0035
827.482	-0.0009
827.783	-0.0045
828.083	-0.0131
828.384	-0.0139
828.684	-0.0154
828.985	-0.0083
829.285	-0.0136
829.585	-0.0078
829.885	-0.0097
830.185	0.0035
830.486	0.007
830.786	0.0122
831.086	0.0017
831.385	-0.0024
831.685	-0.0012
831.985	-0.0116
832.285	-0.0081
832.585	-0.0058
832.884	-0
833.184	-0.0069
833.483	-0.0145
833.783	-0.007
834.082	-0.0047
834.381	-0.0063
834.681	-0.015
834.98	-0.0166
835.279	-0.0097
835.578	-0.0092
835.877	-0.0145
836.176	-0.0116
836.475	-0.0153
836.774	-0.0094
837.072	-0.011
837.371	-0.0021
837.67	-0.0021
837.968	-0.0061
838.267	0.002
838.565	0.0133
838.864	0.0155
839.162	0.0094
839.46	-0.0019
839.759	-0.0042
840.057	-0.0078
840.355	-0.0051
840.653	-0.006
840.951	0.0095
841.249	0.0144
841.547	0.004
841.845	-0.0153
842.142	-0.026
842.44	-0.0214
842.738	-0.0228
843.035	-0.0199
843.333	-0.0156
843.63	-0.0088
843.928	-0.0109
844.225	-0.0081
844.522	-0.0127
844.82	-0.0079
845.117	0.002
845.414	0.0038
845.711	0.0044
846.008	0.0046
846.305	0.0107
846.602	0.0083
846.898	0.0069
847.195	-0.0013
847.492	-0.0077
847.788	-0.0149
848.085	-0.0163
848.382	0.0077
848.678	-0.0046
848.974	0.0118
849.271	0.0067
849.567	0.0256
849.863	0.0104
850.159	-0.0086
850.455	-0.0214
850.751	-0.0166
851.047	-0.0182
851.343	-0.009
851.639	-0.0117
851.935	-0.0091
852.23	-0.0068
852.526	-0.0119
852.822	0.0002
853.117	-0.0068
853.413	0.0053
853.708	-0.0015
854.003	-0.0107
854.299	-0.0185
854.594	-0.0373
854.889	-0.0383
855.184	-0.0477
855.479	-0.0423
855.774	-0.037
856.069	-0.0465
856.364	-0.0532
856.659	-0.0392
856.954	-0.0162
857.248	0.0149
857.543	-0.0061
857.837	-0.0343
858.132	-0.0372
858.426	-0.0227
858.721	-0.0082
859.015	-0.0174
859.309	-0.0243
859.604	-0.0257
859.898	-0.0216
860.192	-0.0129
860.486	0.0013
860.78	0.0171
861.074	0.0168
861.367	0.0115
861.661	0.0007
861.955	-0.0137
862.248	-0.0045
862.542	-0.0055
862.836	0.014
863.129	0.013
863.422	0.0081
863.716	0.0041
864.009	0.0072
864.302	0.0121
864.595	0.0127
864.889	0.0171
865.182	0.0111
865.475	-0.0013
865.767	0.0038
866.06	-0.0064
866.353	-0.0045
866.646	-0.0032
866.938	0.0025
867.231	0.0087
867.524	0.0012
867.816	-0.0137
868.109	-0.0368
868.401	-0.0565
868.693	-0.0351
868.985	-0.0034
869.278	0.0231
869.57	0.0345
869.862	0.0359
870.154	0.007
870.446	-0.0252
870.738	-0.0485
871.029	-0.0277
871.321	0.0005
871.613	0.0135
871.904	0.0069
872.196	-0.011
872.487	-0.0089
872.779	-0.0163
873.07	0.0059
873.362	-0.0229
873.653	-0.0257
873.944	-0.0404
874.235	-0.0286
874.526	-0.016
874.817	0
875.108	-0.0177
875.399	0.0017
875.69	-0.0183
875.981	-0.0069
876.271	-0.0195
876.562	-0.0339
876.853	0.0189
877.143	-0.016
877.434	0.0015
877.724	-0.0196
878.014	-0.0106
878.305	0.0024
878.595	-0.0052
878.885	-0.0034
879.175	-0.0161
879.465	-0.0082
879.755	0.0109
880.045	-0.0014
880.335	-0.0367
880.624	-0.069
880.914	-0.069
