Data from 14SS03MU_072217_1a_Absorbance_19-28-25-972.txt Node
Date: Fri Jul 28 19:28:25 MDT 2017
User: Tank Lab
Spectrometer: FLMS01220
Trigger mode: 0
Integration Time (sec): 1.000000E-1
Scans to average: 10
Electric dark correction enabled: true
Nonlinearity correction enabled: false
Boxcar width: 1
XAxis mode: Wavelengths
Number of Pixels in Spectrum: 2048
>>>>>Begin Spectral Data<<<<<
179.47	-0
179.856	-0
180.241	-0
180.626	-0
181.011	-0.0177
181.396	-0.1654
181.781	-0.1202
182.166	-0.3759
182.551	0.4744
182.936	0.7542
183.321	-0
183.706	1.1606
184.091	0.0847
184.476	-0.1484
184.86	0.263
185.245	-0.5126
185.63	0.4579
186.015	-0
186.399	-0
186.784	-0
187.169	-0
187.553	-0
187.938	-0
188.322	0.0568
188.707	0.1203
189.091	0.1524
189.475	0.1876
189.86	0.2211
190.244	0.2685
190.629	0.2578
191.013	0.3282
191.397	0.3973
191.781	0.512
192.165	0.5483
192.55	0.5836
192.934	0.5973
193.318	0.6502
193.702	0.7132
194.086	0.7502
194.47	0.7643
194.854	0.7844
195.238	0.7951
195.622	0.8034
196.006	0.8285
196.389	0.8442
196.773	0.8517
197.157	0.8375
197.541	0.8586
197.924	0.8655
198.308	0.8806
198.692	0.8968
199.075	0.8924
199.459	0.8733
199.843	0.8479
200.226	0.8574
200.61	0.8872
200.993	0.8915
201.376	0.8832
201.76	0.8444
202.143	0.8553
202.527	0.8382
202.91	0.8478
203.293	0.8323
203.676	0.8233
204.059	0.8353
204.443	0.842
204.826	0.8562
205.209	0.8563
205.592	0.8604
205.975	0.8693
206.358	0.8662
206.741	0.8496
207.124	0.8601
207.507	0.8559
207.89	0.8722
208.273	0.863
208.655	0.856
209.038	0.8341
209.421	0.8227
209.804	0.817
210.186	0.829
210.569	0.8289
210.951	0.8399
211.334	0.8283
211.717	0.8318
212.099	0.8176
212.482	0.8216
212.864	0.8164
213.246	0.8157
213.629	0.8124
214.011	0.815
214.393	0.8184
214.776	0.8164
215.158	0.8127
215.54	0.8031
215.922	0.7949
216.305	0.789
216.687	0.7822
217.069	0.7731
217.451	0.7655
217.833	0.7674
218.215	0.7674
218.597	0.7589
218.979	0.7448
219.361	0.7366
219.742	0.7309
220.124	0.7307
220.506	0.7292
220.888	0.7231
221.27	0.7146
221.651	0.7093
222.033	0.7026
222.415	0.6987
222.796	0.6941
223.178	0.6904
223.559	0.6845
223.941	0.6728
224.322	0.6665
224.704	0.6581
225.085	0.655
225.466	0.65
225.848	0.6462
226.229	0.6388
226.61	0.6358
226.992	0.6314
227.373	0.6293
227.754	0.6269
228.135	0.6216
228.516	0.6178
228.897	0.6101
229.278	0.608
229.659	0.6034
230.04	0.5964
230.421	0.588
230.802	0.5812
231.183	0.5791
231.564	0.578
231.944	0.5752
232.325	0.5684
232.706	0.5628
233.087	0.5579
233.467	0.5563
233.848	0.5557
234.229	0.5551
234.609	0.5545
234.99	0.5474
235.37	0.5422
235.751	0.5374
236.131	0.5352
236.511	0.5325
236.892	0.5278
237.272	0.5263
237.652	0.5221
238.033	0.5215
238.413	0.5181
238.793	0.5156
239.173	0.5117
239.553	0.51
239.933	0.5083
240.313	0.5072
240.694	0.5014
241.074	0.4965
241.453	0.4916
241.833	0.4897
242.213	0.4896
242.593	0.4859
242.973	0.4841
243.353	0.4806
243.732	0.4794
244.112	0.4784
244.492	0.4762
244.872	0.4755
245.251	0.4737
245.631	0.4727
246.01	0.4686
246.39	0.4651
246.769	0.4622
247.149	0.4612
247.528	0.4596
247.908	0.4597
248.287	0.4594
248.666	0.4564
249.045	0.4533
249.425	0.4499
249.804	0.4491
250.183	0.4452
250.562	0.4439
250.941	0.4425
251.32	0.4432
251.699	0.4425
252.078	0.4409
252.457	0.4384
252.836	0.4367
253.215	0.436
253.594	0.4344
253.973	0.4304
254.352	0.4286
254.731	0.427
255.109	0.4242
255.488	0.422
255.867	0.4225
256.245	0.424
256.624	0.4229
257.002	0.4202
257.381	0.4188
257.759	0.4162
258.138	0.4154
258.516	0.4155
258.895	0.4152
259.273	0.4128
259.651	0.4088
260.03	0.4066
260.408	0.4063
260.786	0.4073
261.164	0.407
261.542	0.406
261.921	0.4033
262.299	0.4019
262.677	0.3995
263.055	0.3994
263.433	0.3974
263.811	0.3956
264.188	0.393
264.566	0.3906
264.944	0.3903
265.322	0.3886
265.7	0.3893
266.077	0.3846
266.455	0.3818
266.833	0.3791
267.21	0.3799
267.588	0.3808
267.966	0.3808
268.343	0.3787
268.721	0.3761
269.098	0.3721
269.475	0.3714
269.853	0.37
270.23	0.3685
270.607	0.3643
270.985	0.3616
271.362	0.3594
271.739	0.359
272.116	0.3589
272.494	0.3576
272.871	0.3577
273.248	0.355
273.625	0.3533
274.002	0.3494
274.379	0.3473
274.756	0.3462
275.132	0.3431
275.509	0.3409
275.886	0.3379
276.263	0.3367
276.64	0.3367
277.016	0.3359
277.393	0.3354
277.77	0.3319
278.146	0.3307
278.523	0.3279
278.899	0.3259
279.276	0.3223
279.652	0.3205
280.029	0.3204
280.405	0.3195
280.782	0.3199
281.158	0.3174
281.534	0.3152
281.91	0.3107
282.287	0.309
282.663	0.308
283.039	0.3093
283.415	0.3075
283.791	0.3046
284.167	0.3015
284.543	0.3009
284.919	0.3002
285.295	0.2989
285.671	0.2954
286.047	0.2924
286.423	0.289
286.799	0.2881
287.174	0.2876
287.55	0.2871
287.926	0.2864
288.301	0.2852
288.677	0.2842
289.053	0.2816
289.428	0.2803
289.804	0.2776
290.179	0.2762
290.555	0.2754
290.93	0.2734
291.305	0.2704
291.681	0.2699
292.056	0.2699
292.431	0.2689
292.806	0.2655
293.182	0.2641
293.557	0.2638
293.932	0.2624
294.307	0.2595
294.682	0.2584
295.057	0.2572
295.432	0.2565
295.807	0.2542
296.182	0.2533
296.557	0.2523
296.932	0.2505
297.306	0.2481
297.681	0.2468
298.056	0.2459
298.43	0.2438
298.805	0.2414
299.18	0.241
299.554	0.2404
299.929	0.2402
300.303	0.2375
300.678	0.2338
301.052	0.2323
301.427	0.232
301.801	0.233
302.175	0.2308
302.55	0.2296
302.924	0.2279
303.298	0.2269
303.672	0.2273
304.046	0.225
304.421	0.2259
304.795	0.2231
305.169	0.2233
305.543	0.2202
305.917	0.2194
306.291	0.2183
306.664	0.2185
307.038	0.215
307.412	0.2148
307.786	0.2124
308.16	0.2133
308.533	0.2109
308.907	0.2084
309.281	0.2085
309.654	0.2073
310.028	0.2073
310.401	0.2033
310.775	0.2011
311.148	0.2014
311.522	0.2019
311.895	0.2015
312.268	0.1986
312.642	0.1962
313.015	0.196
313.388	0.1947
313.761	0.1947
314.135	0.1935
314.508	0.1926
314.881	0.1918
315.254	0.1905
315.627	0.1899
316	0.1881
316.373	0.1856
316.746	0.1855
317.118	0.1841
317.491	0.1844
317.864	0.1833
318.237	0.1818
318.61	0.1807
318.982	0.1785
319.355	0.177
319.727	0.1762
320.1	0.1757
320.473	0.1746
320.845	0.1745
321.218	0.1738
321.59	0.1725
321.962	0.1685
322.335	0.1661
322.707	0.1667
323.079	0.1676
323.452	0.1685
323.824	0.1684
324.196	0.1675
324.568	0.1649
324.94	0.1634
325.312	0.1638
325.684	0.163
326.056	0.161
326.428	0.1563
326.8	0.1532
327.172	0.1529
327.544	0.1523
327.915	0.1532
328.287	0.1519
328.659	0.154
329.031	0.1541
329.402	0.1519
329.774	0.1488
330.145	0.1461
330.517	0.1451
330.888	0.1441
331.26	0.1433
331.631	0.1428
332.003	0.1429
332.374	0.1432
332.745	0.1435
333.117	0.1424
333.488	0.1406
333.859	0.1386
334.23	0.1373
334.601	0.1364
334.972	0.1364
335.343	0.1351
335.714	0.1337
336.085	0.1322
336.456	0.1308
336.827	0.1309
337.198	0.1311
337.569	0.1302
337.94	0.1289
338.31	0.128
338.681	0.1282
339.052	0.1282
339.422	0.1259
339.793	0.1248
340.164	0.1238
340.534	0.1227
340.905	0.1215
341.275	0.1199
341.645	0.1206
342.016	0.1213
342.386	0.1212
342.756	0.1205
343.127	0.118
343.497	0.1155
343.867	0.1146
344.237	0.1156
344.607	0.1155
344.977	0.1154
345.347	0.1141
345.717	0.1124
346.087	0.1108
346.457	0.1104
346.827	0.1125
347.197	0.1125
347.567	0.1109
347.936	0.1093
348.306	0.1098
348.676	0.1102
349.046	0.1099
349.415	0.1081
349.785	0.1086
350.154	0.1071
350.524	0.1062
350.893	0.1036
351.263	0.1047
351.632	0.104
352.001	0.1033
352.371	0.104
352.74	0.1018
353.109	0.1015
353.478	0.0972
353.847	0.0968
354.217	0.0979
354.586	0.0981
354.955	0.0986
355.324	0.0962
355.693	0.0971
356.062	0.0978
356.43	0.097
356.799	0.0929
357.168	0.0895
357.537	0.0885
357.906	0.0913
358.274	0.0908
358.643	0.0884
359.011	0.0868
359.38	0.0856
359.749	0.0876
360.117	0.0858
360.486	0.0869
360.854	0.0864
361.222	0.0845
361.591	0.083
361.959	0.0795
362.327	0.0821
362.695	0.0823
363.064	0.0835
363.432	0.0827
363.8	0.0826
364.168	0.0813
364.536	0.0827
364.904	0.0816
365.272	0.0819
365.64	0.078
366.008	0.0772
366.376	0.0764
366.743	0.0758
367.111	0.0754
367.479	0.0747
367.847	0.0756
368.214	0.0747
368.582	0.0736
368.949	0.0745
369.317	0.0732
369.684	0.073
370.052	0.0707
370.419	0.0723
370.787	0.0732
371.154	0.0745
371.521	0.0747
371.889	0.0733
372.256	0.0707
372.623	0.0685
372.99	0.0675
373.357	0.0676
373.724	0.0678
374.091	0.0702
374.458	0.069
374.825	0.0679
375.192	0.0655
375.559	0.0651
375.926	0.0653
376.293	0.0642
376.659	0.0638
377.026	0.0626
377.393	0.0639
377.759	0.063
378.126	0.0631
378.492	0.0613
378.859	0.0613
379.225	0.0588
379.592	0.058
379.958	0.0562
380.325	0.0557
380.691	0.0567
381.057	0.0568
381.423	0.0584
381.79	0.0565
382.156	0.0552
382.522	0.0543
382.888	0.056
383.254	0.0583
383.62	0.0579
383.986	0.0559
384.352	0.0543
384.718	0.0545
385.084	0.0543
385.449	0.0528
385.815	0.0523
386.181	0.0521
386.547	0.0544
386.912	0.0538
387.278	0.0539
387.643	0.0513
388.009	0.0526
388.374	0.0509
388.74	0.0524
389.105	0.0494
389.471	0.0499
389.836	0.0492
390.201	0.051
390.566	0.0509
390.932	0.0506
391.297	0.0491
391.662	0.0468
392.027	0.0452
392.392	0.0436
392.757	0.043
393.122	0.0423
393.487	0.0425
393.852	0.0448
394.217	0.0456
394.582	0.048
394.946	0.0464
395.311	0.0449
395.676	0.0424
396.04	0.0451
396.405	0.0466
396.77	0.0467
397.134	0.0424
397.499	0.0424
397.863	0.0418
398.227	0.0441
398.592	0.0401
398.956	0.0404
399.32	0.0384
399.685	0.0405
400.049	0.0397
400.413	0.0395
400.777	0.0401
401.141	0.0397
401.505	0.0407
401.869	0.0397
402.233	0.0396
402.597	0.0386
402.961	0.038
403.325	0.0403
403.689	0.0396
404.053	0.0416
404.416	0.0374
404.78	0.0377
405.144	0.0355
405.507	0.0361
405.871	0.035
406.234	0.0355
406.598	0.0364
406.961	0.036
407.325	0.0351
407.688	0.0326
408.051	0.0332
408.415	0.0345
408.778	0.0354
409.141	0.0352
409.504	0.0351
409.867	0.033
410.23	0.0318
410.593	0.0295
410.956	0.0303
411.319	0.0302
411.682	0.0291
412.045	0.0308
412.408	0.0312
412.771	0.0327
413.134	0.0325
413.496	0.0302
413.859	0.029
414.222	0.0286
414.584	0.0339
414.947	0.0342
415.309	0.0338
415.672	0.0316
416.034	0.0302
416.396	0.0297
416.759	0.0279
417.121	0.0306
417.483	0.0295
417.846	0.0284
418.208	0.0264
418.57	0.0279
418.932	0.0256
419.294	0.0264
419.656	0.0261
420.018	0.0284
420.38	0.028
420.742	0.026
421.104	0.0262
421.466	0.025
421.827	0.0246
422.189	0.0241
422.551	0.0247
422.912	0.0252
423.274	0.0257
423.636	0.0257
423.997	0.0267
424.359	0.0273
424.72	0.0286
425.081	0.0277
425.443	0.0278
425.804	0.0271
426.165	0.03
426.527	0.0278
426.888	0.0258
427.249	0.0243
427.61	0.0257
427.971	0.0256
428.332	0.0232
428.693	0.0218
429.054	0.0219
429.415	0.0225
429.776	0.0208
430.137	0.021
430.498	0.0208
430.858	0.0229
431.219	0.0219
431.58	0.0234
431.94	0.0232
432.301	0.0218
432.661	0.0182
433.022	0.0175
433.382	0.0184
433.743	0.0221
434.103	0.022
434.463	0.0217
434.824	0.0203
435.184	0.0208
435.544	0.0248
435.904	0.0254
436.264	0.0254
436.624	0.0225
436.985	0.0202
437.345	0.0215
437.704	0.0207
438.064	0.0206
438.424	0.018
438.784	0.0181
439.144	0.0175
439.504	0.0193
439.863	0.0185
440.223	0.0211
440.583	0.0183
440.942	0.0181
441.302	0.0166
441.661	0.0174
442.021	0.0184
442.38	0.0182
442.739	0.0192
443.099	0.0161
443.458	0.017
443.817	0.0158
444.176	0.0183
444.536	0.019
444.895	0.0199
445.254	0.0181
445.613	0.0168
445.972	0.0163
446.331	0.0181
446.69	0.0175
447.049	0.015
447.407	0.016
447.766	0.0157
448.125	0.0176
448.484	0.0165
448.842	0.0149
449.201	0.0151
449.559	0.0126
449.918	0.0155
450.276	0.0157
450.635	0.0169
450.993	0.0152
451.352	0.0146
451.71	0.0171
452.068	0.0163
452.426	0.016
452.785	0.0143
453.143	0.0142
453.501	0.0149
453.859	0.0135
454.217	0.016
454.575	0.0156
454.933	0.015
455.291	0.0157
455.649	0.0132
456.006	0.0122
456.364	0.0105
456.722	0.0154
457.079	0.0182
457.437	0.0171
457.795	0.0161
458.152	0.0157
458.51	0.0145
458.867	0.0123
459.225	0.011
459.582	0.011
459.939	0.0114
460.297	0.0104
460.654	0.0122
461.011	0.0112
461.368	0.0166
461.725	0.014
462.082	0.0164
462.44	0.0073
462.797	0.007
463.153	0.0048
463.51	0.0073
463.867	0.0095
464.224	0.0118
464.581	0.0158
464.938	0.0178
465.294	0.0183
465.651	0.0179
466.008	0.0105
466.364	0.009
466.721	0.0083
467.077	0.0114
467.434	0.0096
467.79	0.0109
468.146	0.0108
468.503	0.0103
468.859	0.0088
469.215	0.009
469.571	0.0097
469.927	0.0098
470.284	0.0105
470.64	0.0125
470.996	0.0134
471.352	0.0162
471.707	0.0135
472.063	0.0134
472.419	0.0114
472.775	0.0132
473.131	0.0118
473.486	0.0087
473.842	0.0076
474.198	0.0075
474.553	0.0099
474.909	0.011
475.264	0.0093
475.62	0.0088
475.975	0.0072
476.331	0.0089
476.686	0.0103
477.041	0.0101
477.396	0.0079
477.752	0.0071
478.107	0.009
478.462	0.0081
478.817	0.0067
479.172	0.0062
479.527	0.0062
479.882	0.0086
480.237	0.0064
480.591	0.0079
480.946	0.0066
481.301	0.0095
481.656	0.0124
482.01	0.0118
482.365	0.0104
482.72	0.0089
483.074	0.0067
483.429	0.0066
483.783	0.0073
484.137	0.0092
484.492	0.0072
484.846	0.0059
485.2	0.0068
485.555	0.0093
485.909	0.0081
486.263	0.0052
486.617	0.0048
486.971	0.006
487.325	0.0085
487.679	0.0091
488.033	0.0092
488.387	0.0087
488.741	0.0065
489.094	0.0059
489.448	0.0062
489.802	0.0085
490.156	0.0076
490.509	0.0082
490.863	0.0063
491.216	0.0072
491.57	0.0049
491.923	0.0067
492.277	0.0056
492.63	0.0091
492.983	0.0075
493.337	0.0089
493.69	0.0062
494.043	0.0046
494.396	0.0055
494.749	0.0049
495.102	0.0049
495.455	0.0022
495.808	0.0041
496.161	0.0063
496.514	0.0084
496.867	0.0074
497.22	0.007
497.572	0.0044
497.925	0.0065
498.278	0.006
498.63	0.0065
498.983	0.0011
499.335	0.0011
499.688	0.0017
500.04	0.0035
500.393	0.0024
500.745	0.0028
501.097	0.0025
501.449	0.0048
501.802	0.0043
502.154	0.0038
502.506	0.0027
502.858	0.0021
503.21	0.0039
503.562	0.0021
503.914	0.0022
504.266	0.0018
504.618	0.0037
504.969	0.0058
505.321	0.0062
505.673	0.0065
506.025	0.0037
506.376	0.0024
506.728	0.0029
507.079	0.005
507.431	0.0059
507.782	0.0051
508.134	0.0032
508.485	0.004
508.836	0.0045
509.188	0.0053
509.539	0.0043
509.89	0.0051
510.241	0.0053
510.592	0.0032
510.943	0.002
511.294	0.003
511.645	0.0052
511.996	0.0044
512.347	0.0022
512.698	0.0018
513.049	0.0033
513.399	0.0066
513.75	0.0088
514.101	0.0076
514.451	0.0079
514.802	0.0044
515.152	0.0025
515.503	0.0002
515.853	0.003
516.203	0.005
516.554	0.0057
516.904	0.0048
517.254	0.0048
517.604	0.0012
517.955	0.0002
518.305	-0.0035
518.655	-0.0009
519.005	-0.0022
519.355	-0.0013
519.705	-0.0016
520.055	-0.003
520.404	-0.0031
520.754	-0.0027
521.104	0.0013
521.454	0.0013
521.803	0.0014
522.153	-0.0003
522.502	0.0021
522.852	0.0025
523.201	0.0014
523.551	0.0018
523.9	-0.0004
524.249	0.0001
524.599	-0.001
524.948	0.0004
525.297	0.0011
525.646	-0.0009
525.995	-0.0026
526.344	-0.0036
526.694	-0.0013
527.042	0.0014
527.391	-0.0001
527.74	0.0002
528.089	0.0011
528.438	0.0042
528.787	0.0034
529.135	0.0013
529.484	-0.0002
529.833	0.0022
530.181	0.0014
530.53	0.0013
530.878	-0.0021
531.227	0.0004
531.575	0.0004
531.923	0.002
532.271	-0.0003
532.62	0.0012
532.968	-0.0004
533.316	-0.0026
533.664	-0.001
534.012	0.0005
534.36	0.0034
534.708	0.0014
535.056	-0.0013
535.404	-0.0017
535.752	-0.0018
536.1	-0.0003
536.447	-0.0001
536.795	0.0001
537.143	0.0004
537.49	-0.0019
537.838	-0.0028
538.185	-0.0029
538.533	0.0001
538.88	-0.0006
539.228	-0.0001
539.575	-0.0023
539.922	-0.0003
540.269	-0.001
540.617	0.0017
540.964	-0.0023
541.311	-0.0037
541.658	-0.0047
542.005	-0.0041
542.352	-0.0026
542.699	-0.0044
543.045	-0.0023
543.392	-0.0008
543.739	0.0003
544.086	-0.0025
544.432	-0.0059
544.779	-0.0069
545.126	-0.0055
545.472	-0.004
545.819	-0.0047
546.165	-0.0052
546.512	-0.0063
546.858	-0.0064
547.204	-0.0055
547.55	-0.0046
547.897	-0.0041
548.243	-0.0024
548.589	-0.0019
548.935	-0.0003
549.281	-0.0025
549.627	-0.0024
549.973	-0.0034
550.319	-0.0039
550.665	-0.0031
551.01	-0.0026
551.356	0.0004
551.702	0.0008
552.048	0.0008
552.393	-0.0012
552.739	-0.0049
553.084	-0.0027
553.43	-0.0007
553.775	0.002
554.12	-0.0001
554.466	-0.0055
554.811	-0.0095
555.156	-0.0113
555.502	-0.0085
555.847	-0.0041
556.192	-0.0025
556.537	-0.0027
556.882	-0.0047
557.227	-0.0036
557.572	-0.0028
557.917	-0.001
558.261	-0.0008
558.606	-0.0001
558.951	-0.0007
559.295	-0.0003
559.64	-0.0019
559.985	0.0011
560.329	0.0007
560.674	0.002
561.018	0.0003
561.363	-0.0033
561.707	-0.0051
562.051	-0.0069
562.395	-0.0057
562.74	-0.0044
563.084	-0.0054
563.428	-0.0037
563.772	-0.0058
564.116	-0.0054
564.46	-0.0077
564.804	-0.0055
565.148	-0.0056
565.492	-0.005
565.835	-0.0074
566.179	-0.0061
566.523	-0.0058
566.866	-0.0041
567.21	-0.0052
567.554	-0.0054
567.897	-0.0048
568.24	-0.0015
568.584	0.0014
568.927	0.0002
569.271	-0.0041
569.614	-0.0055
569.957	-0.0042
570.3	-0.0047
570.643	-0.0051
570.986	-0.008
571.329	-0.0054
571.672	-0.0034
572.015	-0.0043
572.358	-0.0036
572.701	-0.0074
573.044	-0.0056
573.387	-0.0068
573.729	-0.0059
574.072	-0.0069
574.414	-0.0097
574.757	-0.0104
575.099	-0.008
575.442	-0.0051
575.784	-0.0033
576.127	-0.004
576.469	-0.0044
576.811	-0.0056
577.153	-0.007
577.496	-0.0096
577.838	-0.0097
578.18	-0.0095
578.522	-0.0087
578.864	-0.0093
579.206	-0.0095
579.548	-0.0089
579.889	-0.007
580.231	-0.0093
580.573	-0.0105
580.915	-0.0114
581.256	-0.0082
581.598	-0.0055
581.939	-0.0037
582.281	-0.0078
582.622	-0.0092
582.964	-0.0067
583.305	-0.0055
583.646	-0.0046
583.988	-0.012
584.329	-0.0119
584.67	-0.0099
585.011	-0.0074
585.352	-0.0039
585.693	-0.0058
586.034	-0.0052
586.375	-0.0044
586.716	-0.0051
587.057	-0.0044
587.398	-0.0119
587.738	-0.0134
588.079	-0.0116
588.42	-0.007
588.76	-0.0063
589.101	-0.0061
589.441	-0.0075
589.782	-0.0063
590.122	-0.0088
590.463	-0.0097
590.803	-0.0078
591.143	-0.0056
591.483	-0.0047
591.823	-0.0062
592.164	-0.0083
592.504	-0.0095
592.844	-0.0109
593.184	-0.0078
593.523	-0.0054
593.863	-0.0018
594.203	-0.0065
594.543	-0.0082
594.883	-0.0079
595.222	-0.0076
595.562	-0.0099
595.901	-0.0101
596.241	-0.0096
596.58	-0.0062
596.92	-0.0046
597.259	-0.0016
597.599	-0.0046
597.938	-0.0114
598.277	-0.0095
598.616	-0.0057
598.955	-0.0008
599.295	-0.0052
599.634	-0.0084
599.973	-0.0127
600.312	-0.0128
600.65	-0.0123
600.989	-0.0092
601.328	-0.0068
601.667	-0.0101
602.005	-0.0094
602.344	-0.0098
602.683	-0.0086
603.021	-0.0112
603.36	-0.0095
603.698	-0.0063
604.037	-0.0048
604.375	-0.0044
604.713	-0.0062
605.052	-0.0057
605.39	-0.0113
605.728	-0.0116
606.066	-0.0158
606.404	-0.0172
606.742	-0.0152
607.08	-0.0115
607.418	-0.0072
607.756	-0.0071
608.094	-0.0097
608.431	-0.0082
608.769	-0.0102
609.107	-0.007
609.444	-0.0094
609.782	-0.0074
610.12	-0.0097
610.457	-0.0095
610.794	-0.0097
611.132	-0.0074
611.469	-0.0083
611.806	-0.0092
612.144	-0.0072
612.481	-0.0083
612.818	-0.0062
613.155	-0.0091
613.492	-0.0047
613.829	-0.0068
614.166	-0.0062
614.503	-0.0066
614.84	-0.0055
615.176	-0.0074
615.513	-0.0088
615.85	-0.0101
616.187	-0.0084
616.523	-0.0062
616.86	-0.0084
617.196	-0.0102
617.533	-0.0151
617.869	-0.01
618.205	-0.0084
618.542	-0.0045
618.878	-0.0058
619.214	-0.0092
619.55	-0.0105
619.886	-0.0107
620.222	-0.0068
620.558	-0.0082
620.894	-0.0051
621.23	-0.0082
621.566	-0.0098
621.902	-0.015
622.238	-0.0148
622.573	-0.0125
622.909	-0.0117
623.244	-0.01
623.58	-0.0079
623.916	-0.0058
624.251	-0.0046
624.586	-0.0107
624.922	-0.0109
625.257	-0.0088
625.592	-0.0055
625.927	-0.0028
626.263	-0.008
626.598	-0.0105
626.933	-0.0115
627.268	-0.0106
627.603	-0.0097
627.938	-0.0113
628.272	-0.0128
628.607	-0.0132
628.942	-0.0124
629.277	-0.0063
629.611	-0.0048
629.946	-0.0069
630.281	-0.0104
630.615	-0.009
630.949	-0.0082
631.284	-0.0035
631.618	-0.0067
631.953	-0.0077
632.287	-0.0093
632.621	-0.0046
632.955	-0.0036
633.289	-0.0051
633.623	-0.0085
633.957	-0.005
634.291	-0.0051
634.625	-0.0064
634.959	-0.0098
635.293	-0.0115
635.627	-0.0131
635.96	-0.0133
636.294	-0.0144
636.627	-0.0088
636.961	-0.0078
637.294	-0.0051
637.628	-0.0067
637.961	-0.0082
638.295	-0.0082
638.628	-0.0112
638.961	-0.0099
639.294	-0.0086
639.628	-0.0057
639.961	-0.0022
640.294	-0.0005
640.627	-0.0014
640.96	-0.0051
641.293	-0.0091
641.625	-0.011
641.958	-0.0141
642.291	-0.0092
642.624	-0.008
642.956	-0.0078
643.289	-0.0137
643.621	-0.0134
643.954	-0.0165
644.286	-0.0166
644.619	-0.0147
644.951	-0.0069
645.283	-0.0051
645.616	-0.0086
645.948	-0.0124
646.28	-0.0111
646.612	-0.0064
646.944	-0.0023
647.276	-0.0026
647.608	-0.0055
647.94	-0.0068
648.272	-0.0055
648.603	-0.0042
648.935	-0.0058
649.267	-0.0061
649.598	-0.0072
649.93	-0.0069
650.261	-0.0059
650.593	-0.0068
650.924	-0.0062
651.256	-0.0072
651.587	-0.0102
651.918	-0.0099
652.25	-0.0104
652.581	-0.0084
652.912	-0.0069
653.243	-0.0051
653.574	-0.0074
653.905	-0.0141
654.236	-0.016
654.567	-0.0103
654.897	-0.0081
655.228	-0.0082
655.559	-0.0079
655.89	-0.0077
656.22	-0.0068
656.551	-0.0081
656.881	-0.0066
657.212	-0.0079
657.542	-0.0096
657.872	-0.0099
658.203	-0.0075
658.533	-0.0239
658.863	-0.0227
659.193	-0.015
659.523	-0.0087
659.853	0.0025
660.183	-0.0031
660.513	-0.006
660.843	-0.0088
661.173	-0.0096
661.503	-0.0131
661.833	-0.0092
662.162	-0.0088
662.492	-0.0021
662.822	-0.0088
663.151	-0.0103
663.481	-0.0129
663.81	-0.0152
664.139	-0.0138
664.469	-0.0154
664.798	-0.0135
665.127	-0.0165
665.456	-0.0125
665.785	-0.0068
666.114	-0.0058
666.443	-0.0054
666.772	-0.009
667.101	-0.0109
667.43	-0.0148
667.759	-0.0138
668.088	-0.0097
668.416	-0.0089
668.745	-0.0088
669.074	-0.0156
669.402	-0.0173
669.731	-0.0167
670.059	-0.0122
670.388	-0.006
670.716	-0.0097
671.044	-0.0096
671.372	-0.0102
671.701	-0.0067
672.029	-0.0049
672.357	-0.0087
672.685	-0.0085
673.013	-0.0094
673.341	-0.0072
673.669	-0.0079
673.996	-0.0107
674.324	-0.0136
674.652	-0.0125
674.98	-0.0095
675.307	-0.0098
675.635	-0.012
675.962	-0.0107
676.29	-0.0063
676.617	-0.0017
676.945	-0.0007
677.272	-0.0017
677.599	-0.0029
677.926	-0.0035
678.253	-0.0045
678.581	-0.007
678.908	-0.0096
679.235	-0.0063
679.561	-0.0045
679.888	-0.0028
680.215	-0.0029
680.542	-0.0047
680.869	-0.0063
681.195	-0.0052
681.522	-0.0032
681.849	-0.0047
682.175	-0.0125
682.502	-0.0147
682.828	-0.0104
683.154	-0.0076
683.481	-0.0063
683.807	-0.0084
684.133	-0.0096
684.459	-0.009
684.785	-0.0079
685.111	-0.0086
685.437	-0.0113
685.763	-0.0153
686.089	-0.0185
686.415	-0.0222
686.741	-0.0192
687.067	-0.0142
687.392	-0.0103
687.718	-0.0108
688.043	-0.0085
688.369	-0.0099
688.694	-0.006
689.02	-0.0105
689.345	-0.0067
689.67	-0.0116
689.996	-0.0096
690.321	-0.0119
690.646	-0.0119
690.971	-0.0137
691.296	-0.0112
691.621	-0.0136
691.946	-0.0095
692.271	-0.0138
692.596	-0.01
692.921	-0.0078
693.245	-0.0015
693.57	-0.0006
693.895	-0.0026
694.219	-0.0051
694.544	-0.0048
694.868	-0.005
695.193	-0.0078
695.517	-0.0097
695.841	-0.0129
696.166	-0.0127
696.49	-0.0133
696.814	-0.0135
697.138	-0.0138
697.462	-0.0167
697.786	-0.0152
698.11	-0.0183
698.434	-0.0145
698.758	-0.0143
699.081	-0.0136
699.405	-0.0158
699.729	-0.014
700.052	-0.0146
700.376	-0.0102
700.7	-0.0116
701.023	-0.0091
701.346	-0.0108
701.67	-0.0102
701.993	-0.0099
702.316	-0.0118
702.639	-0.0145
702.963	-0.0197
703.286	-0.0224
703.609	-0.0181
703.932	-0.0174
704.255	-0.0081
704.578	-0.01
704.9	-0.0039
705.223	-0.0107
705.546	-0.0105
705.868	-0.0102
706.191	-0.0121
706.514	-0.0165
706.836	-0.0187
707.159	-0.0165
707.481	-0.0094
707.803	-0.0082
708.126	-0.0085
708.448	-0.0143
708.77	-0.0154
709.092	-0.0161
709.414	-0.0121
709.736	-0.0127
710.058	-0.0139
710.38	-0.0182
710.702	-0.0188
711.024	-0.0167
711.345	-0.0113
711.667	-0.0086
711.989	-0.0085
712.31	-0.0059
712.632	-0.0091
712.953	-0.0046
713.275	-0.0074
713.596	-0.006
713.917	-0.0102
714.239	-0.0125
714.56	-0.01
714.881	-0.009
715.202	-0.0092
715.523	-0.0121
715.844	-0.0083
716.165	-0.0114
716.486	-0.0091
716.807	-0.0162
717.128	-0.0125
717.448	-0.015
717.769	-0.0129
718.09	-0.0117
718.41	-0.0084
718.731	-0.0031
719.051	-0.0018
719.372	0.0009
719.692	-0.0063
720.012	-0.0126
720.332	-0.0166
720.653	-0.0157
720.973	-0.0156
721.293	-0.0169
721.613	-0.0151
721.933	-0.0098
722.253	-0.0093
722.573	-0.0096
722.892	-0.0128
723.212	-0.0162
723.532	-0.0179
723.851	-0.0176
724.171	-0.0162
724.491	-0.0201
724.81	-0.0203
725.129	-0.0142
725.449	-0.0062
725.768	-0.003
726.087	-0.0094
726.407	-0.0089
726.726	-0.0119
727.045	-0.0078
727.364	-0.0151
727.683	-0.0143
728.002	-0.0152
728.321	-0.0076
728.64	-0.0067
728.958	-0.0063
729.277	-0.0105
729.596	-0.0132
729.914	-0.0155
730.233	-0.0124
730.551	-0.0107
730.87	-0.0104
731.188	-0.0083
731.507	-0.008
731.825	-0.0081
732.143	-0.0135
732.461	-0.0135
732.779	-0.0115
733.097	-0.0141
733.415	-0.0144
733.733	-0.0191
734.051	-0.0154
734.369	-0.0161
734.687	-0.0139
735.005	-0.0136
735.322	-0.0106
735.64	-0.0129
735.957	-0.0121
736.275	-0.0106
736.592	-0.0064
736.91	-0.0084
737.227	-0.0124
737.544	-0.015
737.862	-0.0139
738.179	-0.0148
738.496	-0.0125
738.813	-0.0153
739.13	-0.0146
739.447	-0.0099
739.764	-0.0109
740.081	-0.0108
740.398	-0.0156
740.714	-0.0112
741.031	-0.0089
741.348	-0.0097
741.664	-0.0099
741.981	-0.016
742.297	-0.0101
742.614	-0.0108
742.93	-0.005
743.246	-0.0086
743.563	-0.0126
743.879	-0.0178
744.195	-0.0198
744.511	-0.0152
744.827	-0.0141
745.143	-0.0146
745.459	-0.0165
745.775	-0.0109
746.091	-0.0115
746.406	-0.0075
746.722	-0.0078
747.038	-0.0045
747.353	-0.0093
747.669	-0.0149
747.984	-0.0178
748.3	-0.0098
748.615	-0.0097
748.93	-0.0033
749.246	-0.0073
749.561	-0.0086
749.876	-0.0112
750.191	-0.0153
750.506	-0.0146
750.821	-0.0132
751.136	-0.011
751.451	-0.0058
751.766	-0.0081
752.08	-0.0093
752.395	-0.0122
752.71	-0.0158
753.024	-0.0116
753.339	-0.0076
753.653	-0.0035
753.968	-0.0061
754.282	-0.0104
754.596	-0.0065
754.911	-0.006
755.225	-0.0036
755.539	-0.0129
755.853	-0.0177
756.167	-0.0228
756.481	-0.0193
756.795	-0.0154
757.109	-0.0076
757.423	-0.01
757.736	-0.0073
758.05	-0.0146
758.364	-0.0116
758.677	-0.0164
758.991	-0.0149
759.304	-0.0154
759.618	-0.0126
759.931	-0.0136
760.244	-0.0172
760.558	-0.0166
760.871	-0.0175
761.184	-0.0128
761.497	-0.0108
761.81	-0.0053
762.123	-0.0098
762.436	-0.0146
762.749	-0.0173
763.062	-0.0156
763.374	-0.0169
763.687	-0.0148
764	-0.0153
764.312	-0.0105
764.625	-0.0128
764.937	-0.0149
765.25	-0.016
765.562	-0.0146
765.874	-0.0098
766.186	-0.0118
766.499	-0.0131
766.811	-0.0147
767.123	-0.0174
767.435	-0.0189
767.747	-0.0179
768.059	-0.0119
768.37	-0.0107
768.682	-0.0103
768.994	-0.0175
769.306	-0.0159
769.617	-0.0171
769.929	-0.0121
770.24	-0.0106
770.552	-0.0153
770.863	-0.0205
771.174	-0.0182
771.486	-0.0131
771.797	-0.0104
772.108	-0.0139
772.419	-0.0148
772.73	-0.0172
773.041	-0.0173
773.352	-0.0165
773.663	-0.0145
773.974	-0.0122
774.285	-0.0133
774.595	-0.0123
774.906	-0.0159
775.217	-0.0133
775.527	-0.0116
775.838	-0.0098
776.148	-0.0103
776.458	-0.0077
776.769	-0.0056
777.079	-0.0074
777.389	-0.0158
777.699	-0.021
778.009	-0.0196
778.319	-0.0137
778.629	-0.0075
778.939	-0.0071
779.249	-0.0056
779.559	-0.0106
779.869	-0.0144
780.178	-0.0195
780.488	-0.02
780.798	-0.0166
781.107	-0.0125
781.417	-0.0122
781.726	-0.0151
782.035	-0.0163
782.345	-0.0096
782.654	-0.0121
782.963	-0.0103
783.272	-0.0187
783.581	-0.0161
783.89	-0.0177
784.199	-0.0101
784.508	-0.0136
784.817	-0.0175
785.126	-0.026
785.434	-0.0219
785.743	-0.0162
786.052	-0.0122
786.36	-0.0159
786.669	-0.0192
786.977	-0.0179
787.285	-0.0155
787.594	-0.0165
787.902	-0.0196
788.21	-0.0179
788.518	-0.0125
788.826	-0.0096
789.135	-0.0117
789.442	-0.0145
789.75	-0.0149
790.058	-0.0151
790.366	-0.0164
790.674	-0.0221
790.981	-0.018
791.289	-0.0199
791.597	-0.0182
791.904	-0.0204
792.212	-0.0197
792.519	-0.0155
792.826	-0.0142
793.134	-0.014
793.441	-0.0142
793.748	-0.0132
794.055	-0.0093
794.362	-0.0171
794.669	-0.0171
794.976	-0.0177
795.283	-0.0135
795.59	-0.0138
795.897	-0.0178
796.203	-0.0192
796.51	-0.0227
796.817	-0.0178
797.123	-0.0127
797.43	-0.0103
797.736	-0.0121
798.042	-0.0148
798.349	-0.0124
798.655	-0.0066
798.961	-0.0054
799.267	-0.0095
799.573	-0.0153
799.879	-0.0198
800.185	-0.0155
800.491	-0.0107
800.797	-0.0098
801.103	-0.0106
801.408	-0.0172
801.714	-0.0164
802.02	-0.012
802.325	-0.0088
802.631	-0.0123
802.936	-0.0166
803.242	-0.0167
803.547	-0.0126
803.852	-0.0194
804.157	-0.0199
804.462	-0.0186
804.768	-0.0145
805.073	-0.0117
805.378	-0.0121
805.682	-0.0054
805.987	-0.0126
806.292	-0.009
806.597	-0.0065
806.902	-0.0077
807.206	-0.009
807.511	-0.0162
807.815	-0.0116
808.12	-0.0163
808.424	-0.015
808.728	-0.014
809.033	-0.0134
809.337	-0.0181
809.641	-0.0164
809.945	-0.0142
810.249	-0.0072
810.553	-0.0045
810.857	-0.0103
811.161	-0.0123
811.465	-0.019
811.768	-0.0141
812.072	-0.0236
812.376	-0.0227
812.679	-0.0229
812.983	-0.021
813.286	-0.015
813.59	-0.0148
813.893	-0.009
814.196	-0.0102
814.499	-0.012
814.803	-0.0155
815.106	-0.0218
815.409	-0.019
815.712	-0.0131
816.015	-0.0124
816.318	-0.0152
816.62	-0.019
816.923	-0.0147
817.226	-0.0126
817.528	-0.01
817.831	-0.0148
818.133	-0.0162
818.436	-0.0218
818.738	-0.0171
819.041	-0.0196
819.343	-0.0131
819.645	-0.0149
819.947	-0.0093
820.249	-0.0121
820.551	-0.0158
820.853	-0.0132
821.155	-0.0187
821.457	-0.0168
821.759	-0.0156
822.061	-0.0039
822.362	-0.0035
822.664	-0.0133
822.966	-0.012
823.267	-0.0109
823.569	-0.0116
823.87	-0.0271
824.171	-0.0306
824.473	-0.0306
824.774	-0.0193
825.075	-0.0182
825.376	-0.0119
825.677	-0.0091
825.978	-0.0095
826.279	-0.0127
826.58	-0.0151
826.881	-0.0159
827.181	-0.0132
827.482	-0.0162
827.783	-0.0186
828.083	-0.0269
828.384	-0.0333
828.684	-0.0355
828.985	-0.0298
829.285	-0.0233
829.585	-0.0163
829.885	-0.0206
830.185	-0.0229
830.486	-0.024
830.786	-0.0157
831.086	-0.0148
831.385	-0.013
831.685	-0.0167
831.985	-0.0197
832.285	-0.0126
832.585	-0.0123
832.884	-0.0042
833.184	-0.0151
833.483	-0.0166
833.783	-0.0206
834.082	-0.0163
834.381	-0.0113
834.681	-0.0092
834.98	-0.0082
835.279	-0.0165
835.578	-0.0145
835.877	-0.0145
836.176	-0.008
836.475	-0.0021
836.774	-0.0008
837.072	-0.0101
837.371	-0.0149
837.67	-0.0096
837.968	-0.0015
838.267	-0.0085
838.565	-0.0179
838.864	-0.0165
839.162	-0.0135
839.46	-0.0208
839.759	-0.0192
840.057	-0.0094
840.355	0.0094
840.653	0.0037
840.951	-0.0067
841.249	-0.0121
841.547	-0.0021
841.845	0.003
842.142	0.0024
842.44	-0.0104
842.738	-0.0201
843.035	-0.0263
843.333	-0.019
843.63	-0.0145
843.928	-0.0072
844.225	-0.0082
844.522	-0.0042
844.82	-0.0179
845.117	-0.0181
845.414	-0.0232
845.711	-0.006
846.008	-0.0057
846.305	-0.0201
846.602	-0.0322
846.898	-0.0359
847.195	-0.0287
847.492	-0.022
847.788	-0.0153
848.085	-0.0097
848.382	-0.0086
848.678	-0.022
848.974	-0.0326
849.271	-0.0305
849.567	-0.0268
849.863	-0.0147
850.159	-0.0235
850.455	-0.0152
850.751	-0.021
851.047	-0.0134
851.343	-0.0242
851.639	-0.0198
851.935	-0.0334
852.23	-0.0277
852.526	-0.0205
852.822	-0.0083
853.117	-0.0016
853.413	-0.0125
853.708	-0.0188
854.003	-0.0078
854.299	0.0075
854.594	0.0157
854.889	-0.0071
855.184	-0.007
855.479	-0.0077
855.774	0.0118
856.069	0.0044
856.364	0.0105
856.659	0.0004
856.954	0.0103
857.248	-0.0006
857.543	0.0017
857.837	-0.0187
858.132	-0.0209
858.426	-0.0317
858.721	-0.0335
859.015	-0.0351
859.309	-0.0357
859.604	-0.0274
859.898	-0.0197
860.192	-0.0149
860.486	-0.0209
860.78	-0.0249
861.074	-0.0228
861.367	-0.0029
861.661	0.0007
861.955	0.0033
862.248	-0.0037
862.542	-0.0255
862.836	-0.0224
863.129	-0.029
863.422	-0.0037
863.716	-0.0127
864.009	-0.0065
864.302	-0.0325
864.595	-0.0429
864.889	-0.0657
865.182	-0.053
865.475	-0.0443
865.767	-0.0326
866.06	-0.0348
866.353	-0.0292
866.646	-0.0071
866.938	-0.0135
867.231	-0.0326
867.524	-0.0316
867.816	-0.0069
868.109	0.0142
868.401	-0.0054
868.693	-0.0058
868.985	-0.0153
869.278	-0.0232
869.57	-0.0335
869.862	-0.0425
870.154	-0.0278
870.446	-0.0279
870.738	-0.0208
871.029	-0.0417
871.321	-0.0369
871.613	-0.0262
871.904	-0.0209
872.196	-0.0353
872.487	-0.0413
872.779	-0.0278
873.07	-0.0092
873.362	0.0101
873.653	0.0157
873.944	0.0089
874.235	-0.0241
874.526	-0.0326
874.817	-0.0359
875.108	-0.0089
875.399	-0.0052
875.69	-0.004
875.981	-0.0284
876.271	-0.0382
876.562	-0.0239
876.853	-0.0326
877.143	-0.0264
877.434	-0.035
877.724	-0.0321
878.014	-0.0135
878.305	-0.0127
878.595	0.0277
878.885	0.0036
879.175	-0.0057
879.465	-0.037
879.755	-0.0348
880.045	-0.0343
880.335	-0.035
880.624	-0.0343
880.914	-0.0343
