Data from 19SS01LI_072217_1b_Absorbance_18-42-01-870.txt Node
Date: Fri Jul 28 18:42:01 MDT 2017
User: Tank Lab
Spectrometer: FLMS01220
Trigger mode: 0
Integration Time (sec): 1.000000E-1
Scans to average: 10
Electric dark correction enabled: true
Nonlinearity correction enabled: false
Boxcar width: 1
XAxis mode: Wavelengths
Number of Pixels in Spectrum: 2048
>>>>>Begin Spectral Data<<<<<
179.47	-0
179.856	-0
180.241	-0
180.626	-0
181.011	-0.049
181.396	0.1959
181.781	0.6184
182.166	-0
182.551	0.4131
182.936	-0
183.321	-0
183.706	-0
184.091	-0.0283
184.476	-0.3693
184.86	-0
185.245	-0
185.63	0.0394
186.015	0.3894
186.399	0.5314
186.784	-0
187.169	-0
187.553	-0
187.938	-0
188.322	-0.0652
188.707	-0.0027
189.091	0.0324
189.475	0.068
189.86	0.0745
190.244	0.0722
190.629	0.0889
191.013	0.1146
191.397	0.1752
191.781	0.2043
192.165	0.2196
192.55	0.2313
192.934	0.2487
193.318	0.2546
193.702	0.2672
194.086	0.2664
194.47	0.2646
194.854	0.2594
195.238	0.2599
195.622	0.269
196.006	0.2791
196.389	0.2713
196.773	0.2675
197.157	0.268
197.541	0.2788
197.924	0.2758
198.308	0.2712
198.692	0.2734
199.075	0.2707
199.459	0.2667
199.843	0.2597
200.226	0.2608
200.61	0.263
200.993	0.26
201.376	0.2579
201.76	0.2554
202.143	0.257
202.527	0.2574
202.91	0.2537
203.293	0.2535
203.676	0.2491
204.059	0.2507
204.443	0.2455
204.826	0.2468
205.209	0.2509
205.592	0.2569
205.975	0.2561
206.358	0.2537
206.741	0.2501
207.124	0.2559
207.507	0.25
207.89	0.2483
208.273	0.2453
208.655	0.24
209.038	0.241
209.421	0.2353
209.804	0.2411
210.186	0.2363
210.569	0.2341
210.951	0.2348
211.334	0.2343
211.717	0.2348
212.099	0.2285
212.482	0.229
212.864	0.2261
213.246	0.2275
213.629	0.2243
214.011	0.2228
214.393	0.2189
214.776	0.2173
215.158	0.2146
215.54	0.2171
215.922	0.2152
216.305	0.2135
216.687	0.2079
217.069	0.2037
217.451	0.2022
217.833	0.2001
218.215	0.1977
218.597	0.1957
218.979	0.1912
219.361	0.1862
219.742	0.1816
220.124	0.182
220.506	0.1828
220.888	0.177
221.27	0.1738
221.651	0.1693
222.033	0.1699
222.415	0.1658
222.796	0.1648
223.178	0.163
223.559	0.1601
223.941	0.1551
224.322	0.1508
224.704	0.1477
225.085	0.1466
225.466	0.1447
225.848	0.1426
226.229	0.1402
226.61	0.1398
226.992	0.1383
227.373	0.1365
227.754	0.1321
228.135	0.1288
228.516	0.1253
228.897	0.122
229.278	0.1216
229.659	0.1217
230.04	0.1223
230.421	0.1193
230.802	0.1171
231.183	0.1158
231.564	0.1155
231.944	0.1124
232.325	0.1098
232.706	0.1071
233.087	0.1071
233.467	0.1076
233.848	0.1077
234.229	0.1073
234.609	0.1061
234.99	0.1041
235.37	0.1033
235.751	0.1011
236.131	0.1009
236.511	0.1009
236.892	0.1011
237.272	0.0989
237.652	0.0981
238.033	0.0961
238.413	0.0969
238.793	0.095
239.173	0.0948
239.553	0.0947
239.933	0.0932
240.313	0.093
240.694	0.0893
241.074	0.0874
241.453	0.0858
241.833	0.0876
242.213	0.088
242.593	0.0868
242.973	0.0869
243.353	0.0872
243.732	0.0884
244.112	0.0868
244.492	0.0865
244.872	0.0865
245.251	0.0873
245.631	0.0867
246.01	0.0854
246.39	0.0842
246.769	0.0845
247.149	0.0842
247.528	0.0854
247.908	0.084
248.287	0.0842
248.666	0.083
249.045	0.0833
249.425	0.0826
249.804	0.0808
250.183	0.0796
250.562	0.0779
250.941	0.0791
251.32	0.0798
251.699	0.0807
252.078	0.0799
252.457	0.0791
252.836	0.0784
253.215	0.0785
253.594	0.0786
253.973	0.0789
254.352	0.079
254.731	0.0782
255.109	0.0764
255.488	0.0763
255.867	0.076
256.245	0.077
256.624	0.0758
257.002	0.0752
257.381	0.0747
257.759	0.0738
258.138	0.0741
258.516	0.0743
258.895	0.0742
259.273	0.0743
259.651	0.0737
260.03	0.0733
260.408	0.0737
260.786	0.0741
261.164	0.0748
261.542	0.0734
261.921	0.072
262.299	0.0725
262.677	0.0723
263.055	0.0733
263.433	0.0709
263.811	0.0709
264.188	0.0696
264.566	0.0695
264.944	0.0702
265.322	0.0708
265.7	0.072
266.077	0.0702
266.455	0.0688
266.833	0.0676
267.21	0.0675
267.588	0.0687
267.966	0.0685
268.343	0.0694
268.721	0.068
269.098	0.0689
269.475	0.0687
269.853	0.0691
270.23	0.0685
270.607	0.0664
270.985	0.0661
271.362	0.064
271.739	0.0642
272.116	0.0638
272.494	0.0646
272.871	0.065
273.248	0.0642
273.625	0.0637
274.002	0.0612
274.379	0.0605
274.756	0.0608
275.132	0.0625
275.509	0.0621
275.886	0.0618
276.263	0.0599
276.64	0.0606
277.016	0.0601
277.393	0.0622
277.77	0.0613
278.146	0.0614
278.523	0.0594
278.899	0.0593
279.276	0.0577
279.652	0.0579
280.029	0.0585
280.405	0.0588
280.782	0.0577
281.158	0.0578
281.534	0.0564
281.91	0.0565
282.287	0.0555
282.663	0.057
283.039	0.0574
283.415	0.0558
283.791	0.0548
284.167	0.0542
284.543	0.0557
284.919	0.0565
285.295	0.057
285.671	0.0568
286.047	0.0549
286.423	0.0537
286.799	0.0545
287.174	0.0546
287.55	0.0534
287.926	0.0512
288.301	0.0526
288.677	0.0527
289.053	0.0528
289.428	0.0511
289.804	0.0521
290.179	0.052
290.555	0.054
290.93	0.0527
291.305	0.0511
291.681	0.0503
292.056	0.0514
292.431	0.0528
292.806	0.0523
293.182	0.0512
293.557	0.0497
293.932	0.0484
294.307	0.0479
294.682	0.049
295.057	0.0497
295.432	0.0508
295.807	0.0504
296.182	0.0501
296.557	0.0491
296.932	0.0485
297.306	0.0487
297.681	0.0487
298.056	0.0479
298.43	0.0466
298.805	0.0447
299.18	0.0461
299.554	0.0451
299.929	0.0464
300.303	0.0463
300.678	0.0456
301.052	0.0473
301.427	0.0471
301.801	0.0481
302.175	0.0457
302.55	0.0452
302.924	0.044
303.298	0.0441
303.672	0.0453
304.046	0.0465
304.421	0.0471
304.795	0.046
305.169	0.0475
305.543	0.0448
305.917	0.045
306.291	0.0428
306.664	0.0453
307.038	0.0428
307.412	0.0435
307.786	0.042
308.16	0.0434
308.533	0.0429
308.907	0.043
309.281	0.0432
309.654	0.0425
310.028	0.0426
310.401	0.042
310.775	0.0405
311.148	0.0398
311.522	0.0383
311.895	0.0394
312.268	0.0415
312.642	0.0417
313.015	0.0419
313.388	0.0405
313.761	0.0404
314.135	0.0405
314.508	0.0404
314.881	0.0414
315.254	0.0407
315.627	0.0394
316	0.0401
316.373	0.0388
316.746	0.0394
317.118	0.0373
317.491	0.039
317.864	0.0405
318.237	0.041
318.61	0.0401
318.982	0.0383
319.355	0.0377
319.727	0.0377
320.1	0.0369
320.473	0.0377
320.845	0.0385
321.218	0.0386
321.59	0.0379
321.962	0.0363
322.335	0.0375
322.707	0.0375
323.079	0.0378
323.452	0.0371
323.824	0.0382
324.196	0.0391
324.568	0.0384
324.94	0.0367
325.312	0.0366
325.684	0.0361
326.056	0.0356
326.428	0.0334
326.8	0.0328
327.172	0.0328
327.544	0.0312
327.915	0.0303
328.287	0.0307
328.659	0.0338
329.031	0.0359
329.402	0.034
329.774	0.0323
330.145	0.0315
330.517	0.0322
330.888	0.0324
331.26	0.0311
331.631	0.0308
332.003	0.0317
332.374	0.0329
332.745	0.0335
333.117	0.032
333.488	0.0304
333.859	0.0308
334.23	0.0306
334.601	0.0313
334.972	0.0321
335.343	0.0323
335.714	0.031
336.085	0.0281
336.456	0.028
336.827	0.029
337.198	0.0308
337.569	0.0293
337.94	0.0278
338.31	0.0264
338.681	0.0264
339.052	0.0283
339.422	0.0289
339.793	0.0306
340.164	0.0302
340.534	0.0304
340.905	0.0281
341.275	0.0259
341.645	0.0256
342.016	0.0278
342.386	0.0278
342.756	0.0277
343.127	0.0252
343.497	0.0261
343.867	0.0257
344.237	0.0275
344.607	0.0267
344.977	0.0269
345.347	0.0261
345.717	0.0256
346.087	0.0238
346.457	0.0248
346.827	0.0264
347.197	0.0278
347.567	0.0257
347.936	0.0254
348.306	0.0259
348.676	0.0272
349.046	0.0271
349.415	0.026
349.785	0.0267
350.154	0.0262
350.524	0.0264
350.893	0.0243
351.263	0.026
351.632	0.0252
352.001	0.0241
352.371	0.0225
352.74	0.0222
353.109	0.0245
353.478	0.0236
353.847	0.0233
354.217	0.0237
354.586	0.0229
354.955	0.0238
355.324	0.0229
355.693	0.0247
356.062	0.0248
356.43	0.0247
356.799	0.0221
357.168	0.0206
357.537	0.0199
357.906	0.0212
358.274	0.0213
358.643	0.0221
359.011	0.0221
359.38	0.0218
359.749	0.0191
360.117	0.0189
360.486	0.0199
360.854	0.0211
361.222	0.0213
361.591	0.021
361.959	0.0203
362.327	0.0181
362.695	0.0173
363.064	0.0206
363.432	0.0228
363.8	0.0236
364.168	0.0207
364.536	0.02
364.904	0.0187
365.272	0.0188
365.64	0.0179
366.008	0.0194
366.376	0.0202
366.743	0.0201
367.111	0.0193
367.479	0.0185
367.847	0.0189
368.214	0.0188
368.582	0.0191
368.949	0.0201
369.317	0.0191
369.684	0.0166
370.052	0.0151
370.419	0.0163
370.787	0.0194
371.154	0.02
371.521	0.0204
371.889	0.018
372.256	0.0171
372.623	0.0175
372.99	0.0177
373.357	0.0168
373.724	0.0152
374.091	0.017
374.458	0.0166
374.825	0.0168
375.192	0.0145
375.559	0.0157
375.926	0.0153
376.293	0.0155
376.659	0.0156
377.026	0.0143
377.393	0.0148
377.759	0.0143
378.126	0.0157
378.492	0.0145
378.859	0.0148
379.225	0.0139
379.592	0.0156
379.958	0.0155
380.325	0.0148
380.691	0.0148
381.057	0.0146
381.423	0.0156
381.79	0.0141
382.156	0.0126
382.522	0.0141
382.888	0.0149
383.254	0.0151
383.62	0.013
383.986	0.0127
384.352	0.012
384.718	0.0108
385.084	0.0118
385.449	0.0128
385.815	0.014
386.181	0.0129
386.547	0.0137
386.912	0.0124
387.278	0.013
387.643	0.0117
388.009	0.0144
388.374	0.0128
388.74	0.013
389.105	0.01
389.471	0.0112
389.836	0.011
390.201	0.0136
390.566	0.0134
390.932	0.0148
391.297	0.0128
391.662	0.0125
392.027	0.0113
392.392	0.0128
392.757	0.0117
393.122	0.0103
393.487	0.0076
393.852	0.0083
394.217	0.0099
394.582	0.0137
394.946	0.0134
395.311	0.0126
395.676	0.01
396.04	0.0095
396.405	0.0099
396.77	0.0105
397.134	0.0083
397.499	0.0087
397.863	0.0088
398.227	0.0124
398.592	0.01
398.956	0.009
399.32	0.0069
399.685	0.0085
400.049	0.0109
400.413	0.0126
400.777	0.0098
401.141	0.0081
401.505	0.0071
401.869	0.0098
402.233	0.0086
402.597	0.01
402.961	0.0095
403.325	0.0119
403.689	0.0103
404.053	0.0115
404.416	0.0097
404.78	0.009
405.144	0.0091
405.507	0.0113
405.871	0.0122
406.234	0.0101
406.598	0.0078
406.961	0.0064
407.325	0.0067
407.688	0.007
408.051	0.009
408.415	0.0099
408.778	0.0099
409.141	0.0097
409.504	0.0105
409.867	0.0081
410.23	0.0081
410.593	0.0066
410.956	0.0085
411.319	0.0067
411.682	0.0036
412.045	0.002
412.408	-0.0001
412.771	0.0039
413.134	0.0058
413.496	0.0088
413.859	0.0073
414.222	0.0083
414.584	0.0105
414.947	0.011
415.309	0.0087
415.672	0.0084
416.034	0.0089
416.396	0.0103
416.759	0.0083
417.121	0.0089
417.483	0.0072
417.846	0.007
418.208	0.0063
418.57	0.0061
418.932	0.0055
419.294	0.004
419.656	0.0042
420.018	0.0065
420.38	0.0058
420.742	0.0063
421.104	0.0045
421.466	0.0035
421.827	0.0027
422.189	0.0023
422.551	0.0048
422.912	0.0056
423.274	0.0064
423.636	0.0058
423.997	0.0083
424.359	0.0083
424.72	0.0091
425.081	0.0075
425.443	0.0092
425.804	0.0086
426.165	0.0091
426.527	0.0056
426.888	0.0051
427.249	0.0048
427.61	0.0078
427.971	0.0087
428.332	0.0065
428.693	0.004
429.054	0.0028
429.415	0.0034
429.776	0.0028
430.137	0.0043
430.498	0.0056
430.858	0.0054
431.219	0.0043
431.58	0.0037
431.94	0.0056
432.301	0.005
432.661	0.0022
433.022	-0.0001
433.382	0.0014
433.743	0.0058
434.103	0.0084
434.463	0.0077
434.824	0.0049
435.184	0.0058
435.544	0.0061
435.904	0.007
436.264	0.0051
436.624	0.0052
436.985	0.006
437.345	0.0059
437.704	0.0052
438.064	0.0048
438.424	0.005
438.784	0.0043
439.144	0.0032
439.504	0.0037
439.863	0.0021
440.223	0.0029
440.583	0.0017
440.942	0.0047
441.302	0.0044
441.661	0.0038
442.021	0.0049
442.38	0.0045
442.739	0.0044
443.099	0.0001
443.458	0.0009
443.817	0.001
444.176	0.0046
444.536	0.0063
444.895	0.0069
445.254	0.0044
445.613	0.0027
445.972	0.0029
446.331	0.0029
446.69	0.0025
447.049	0.0014
447.407	0.0014
447.766	0.0033
448.125	0.0052
448.484	0.0063
448.842	0.005
449.201	0.0049
449.559	0.0037
449.918	0.0025
450.276	0.0012
450.635	0.0024
450.993	0.0033
451.352	0.0047
451.71	0.006
452.068	0.004
452.426	0.0015
452.785	0.0013
453.143	0.0037
453.501	0.0059
453.859	0.0038
454.217	0.0045
454.575	0.002
454.933	0.003
455.291	0.0029
455.649	0.0044
456.006	0.0049
456.364	0.0044
456.722	0.0061
457.079	0.0055
457.437	0.004
457.795	0.005
458.152	0.0062
458.51	0.0073
458.867	0.0048
459.225	0.0024
459.582	0.0017
459.939	0.0001
460.297	0.0013
460.654	0.0019
461.011	0.004
461.368	0.0059
461.725	0.0059
462.082	0.0066
462.44	0.0032
462.797	0.0015
463.153	0.0019
463.51	0.0052
463.867	0.0066
464.224	0.0072
464.581	0.0054
464.938	0.0088
465.294	0.0078
465.651	0.0115
466.008	0.0071
466.364	0.0086
466.721	0.0032
467.077	0.0017
467.434	-0.002
467.79	0.0004
468.146	0.0006
468.503	-0.0008
468.859	-0.002
469.215	-0.0026
469.571	-0.0008
469.927	0.0019
470.284	0.0057
470.64	0.0075
470.996	0.0069
471.352	0.0046
471.707	0.0048
472.063	0.0061
472.419	0.0084
472.775	0.0072
473.131	0.0052
473.486	0.0011
473.842	0.002
474.198	0.0017
474.553	0.0038
474.909	0.0056
475.264	0.0047
475.62	0.0047
475.975	0.0024
476.331	0.0034
476.686	0.0034
477.041	0.0019
477.396	0.0012
477.752	0.0016
478.107	0.0037
478.462	0.0036
478.817	0.0022
479.172	0.0003
479.527	-0.0001
479.882	0.0003
480.237	0.0003
480.591	0.0006
480.946	-0.0007
481.301	0.0011
481.656	0.0019
482.01	0.0039
482.365	0.0029
482.72	0.0029
483.074	0.0027
483.429	0.0019
483.783	0.0023
484.137	0.0003
484.492	0.0002
484.846	-0.0019
485.2	0.0001
485.555	0.0024
485.909	0.0034
486.263	0.0032
486.617	0.0011
486.971	0.0015
487.325	0.0022
487.679	0.0028
488.033	0.0025
488.387	0.0032
488.741	-0
489.094	0.0019
489.448	0.0007
489.802	0.0033
490.156	0.001
490.509	0.0019
490.863	0.0022
491.216	0.0019
491.57	0
491.923	-0.0005
492.277	0.0006
492.63	0.0025
492.983	0.0027
493.337	0.0021
493.69	0.0014
494.043	0.0012
494.396	0.0005
494.749	0.001
495.102	0.0003
495.455	0.0018
495.808	0.0009
496.161	0.0018
496.514	0.0008
496.867	-0.0005
497.22	0.0001
497.572	-0.0008
497.925	0.0022
498.278	0.0012
498.63	0.002
498.983	0.0003
499.335	-0.0005
499.688	0.0001
500.04	-0.0004
500.393	-0.0005
500.745	-0.0019
501.097	-0.0024
501.449	-0.0009
501.802	-0.0014
502.154	-0.0017
502.506	-0.0008
502.858	0.0007
503.21	0.0025
503.562	0.0012
503.914	0.0004
504.266	-0.0001
504.618	0.0004
504.969	0.0012
505.321	0.0006
505.673	0
506.025	-0.0004
506.376	-0.0015
506.728	-0.0004
507.079	0.0015
507.431	0.0026
507.782	0.0018
508.134	0.0011
508.485	0.0034
508.836	0.0042
509.188	0.0009
509.539	-0.0022
509.89	-0.0003
510.241	0.0012
510.592	0.0011
510.943	-0.0018
511.294	0.0005
511.645	-0.0005
511.996	0.0006
512.347	-0.0008
512.698	-0.0004
513.049	-0.001
513.399	0.0006
513.75	0.0022
514.101	0.0019
514.451	0.0012
514.802	-0.0009
515.152	-0.0028
515.503	-0.0026
515.853	-0.0014
516.203	0.0002
516.554	-0.003
516.904	-0.0025
517.254	-0.0023
517.604	0.0002
517.955	-0.0006
518.305	-0.0031
518.655	-0.0059
519.005	-0.005
519.355	-0.0034
519.705	-0.0035
520.055	-0.0053
520.404	-0.0049
520.754	-0.0043
521.104	-0.003
521.454	-0.0035
521.803	-0.0015
522.153	-0.0005
522.502	0.0001
522.852	0.001
523.201	0.0004
523.551	0.0014
523.9	-0.0042
524.249	-0.0051
524.599	-0.0051
524.948	-0.001
525.297	0.001
525.646	-0.0021
525.995	-0.0016
526.344	-0.0016
526.694	0
527.042	-0.001
527.391	-0.0037
527.74	-0.0044
528.089	-0.0018
528.438	-0.0013
528.787	-0.0031
529.135	-0.0086
529.484	-0.0091
529.833	-0.0049
530.181	-0.0041
530.53	-0.0043
530.878	-0.006
531.227	-0.0049
531.575	-0.0031
531.923	-0.0036
532.271	-0.0055
532.62	-0.0048
532.968	-0.0039
533.316	-0.0013
533.664	-0
534.012	-0.0009
534.36	0.0005
534.708	-0.0013
535.056	-0.0017
535.404	-0.0023
535.752	-0.0017
536.1	-0.0022
536.447	-0.0033
536.795	-0.0039
537.143	-0.0029
537.49	-0.0032
537.838	-0.0037
538.185	-0.0014
538.533	-0.0014
538.88	-0.0033
539.228	-0.0061
539.575	-0.0059
539.922	-0.0043
540.269	-0.0051
540.617	-0.004
540.964	-0.0045
541.311	-0.0026
541.658	-0.0029
542.005	-0.0042
542.352	-0.004
542.699	-0.0071
543.045	-0.0065
543.392	-0.0079
543.739	-0.0062
544.086	-0.0068
544.432	-0.0057
544.779	-0.006
545.126	-0.0032
545.472	-0.0008
545.819	0.0022
546.165	0.0018
546.512	-0.0011
546.858	-0.0036
547.204	-0.0048
547.55	-0.0052
547.897	-0.0051
548.243	-0.0044
548.589	-0.0031
548.935	-0.0035
549.281	-0.0052
549.627	-0.0071
549.973	-0.0063
550.319	-0.0064
550.665	-0.0054
551.01	-0.0051
551.356	-0.0012
551.702	0.0004
552.048	0.002
552.393	0.0009
552.739	-0.0054
553.084	-0.0096
553.43	-0.0117
553.775	-0.0075
554.12	-0.0038
554.466	-0.0065
554.811	-0.008
555.156	-0.0117
555.502	-0.0087
555.847	-0.0065
556.192	-0.0035
556.537	-0.0031
556.882	-0.0055
557.227	-0.0072
557.572	-0.0109
557.917	-0.0079
558.261	-0.0064
558.606	-0.0014
558.951	-0.0031
559.295	-0.0021
559.64	-0.0053
559.985	-0.0043
560.329	-0.0046
560.674	-0.0015
561.018	-0.0018
561.363	-0.0033
561.707	-0.0052
562.051	-0.0052
562.395	-0.0046
562.74	-0.0055
563.084	-0.0057
563.428	-0.0044
563.772	-0.004
564.116	-0.0035
564.46	-0.0054
564.804	-0.0067
565.148	-0.0088
565.492	-0.0075
565.835	-0.007
566.179	-0.0027
566.523	-0.0028
566.866	-0.0032
567.21	-0.0065
567.554	-0.0076
567.897	-0.0061
568.24	-0.003
568.584	-0.0014
568.927	-0.0007
569.271	-0.0023
569.614	-0.0054
569.957	-0.0067
570.3	-0.0087
570.643	-0.0093
570.986	-0.0086
571.329	-0.0064
571.672	-0.0038
572.015	-0.0051
572.358	-0.0047
572.701	-0.0057
573.044	-0.0059
573.387	-0.0073
573.729	-0.0069
574.072	-0.0078
574.414	-0.0082
574.757	-0.0076
575.099	-0.0054
575.442	-0.0049
575.784	-0.0059
576.127	-0.0071
576.469	-0.0083
576.811	-0.0069
577.153	-0.0053
577.496	-0.0038
577.838	-0.0045
578.18	-0.0072
578.522	-0.008
578.864	-0.0123
579.206	-0.0112
579.548	-0.0116
579.889	-0.0099
580.231	-0.0106
580.573	-0.0109
580.915	-0.0095
581.256	-0.0083
581.598	-0.0073
581.939	-0.0068
582.281	-0.0091
582.622	-0.0083
582.964	-0.007
583.305	-0.0055
583.646	-0.0051
583.988	-0.0079
584.329	-0.0104
584.67	-0.0122
585.011	-0.0128
585.352	-0.0105
585.693	-0.0086
586.034	-0.0055
586.375	-0.0056
586.716	-0.0073
587.057	-0.0083
587.398	-0.0117
587.738	-0.0103
588.079	-0.0088
588.42	-0.0055
588.76	-0.0049
589.101	-0.0051
589.441	-0.0068
589.782	-0.006
590.122	-0.0064
590.463	-0.0069
590.803	-0.0084
591.143	-0.0068
591.483	-0.0074
591.823	-0.0063
592.164	-0.0081
592.504	-0.0079
592.844	-0.0101
593.184	-0.0091
593.523	-0.0065
593.863	-0.0035
594.203	-0.0075
594.543	-0.0106
594.883	-0.0104
595.222	-0.0078
595.562	-0.0086
595.901	-0.0102
596.241	-0.0109
596.58	-0.0084
596.92	-0.0058
597.259	-0.0035
597.599	-0.0042
597.938	-0.0084
598.277	-0.0055
598.616	-0.0045
598.955	-0.0028
599.295	-0.0084
599.634	-0.0105
599.973	-0.0133
600.312	-0.0133
600.65	-0.0126
600.989	-0.0072
601.328	-0.0033
601.667	-0.0033
602.005	-0.0054
602.344	-0.0074
602.683	-0.0083
603.021	-0.0101
603.36	-0.0105
603.698	-0.0091
604.037	-0.0085
604.375	-0.007
604.713	-0.0063
605.052	-0.0056
605.39	-0.0076
605.728	-0.0085
606.066	-0.0106
606.404	-0.0136
606.742	-0.0129
607.08	-0.0105
607.418	-0.0072
607.756	-0.0084
608.094	-0.0104
608.431	-0.0084
608.769	-0.0078
609.107	-0.0054
609.444	-0.0081
609.782	-0.0082
610.12	-0.0103
610.457	-0.0097
610.794	-0.0112
611.132	-0.0096
611.469	-0.0101
611.806	-0.0087
612.144	-0.0095
612.481	-0.0101
612.818	-0.0094
613.155	-0.0104
613.492	-0.0086
613.829	-0.0084
614.166	-0.0076
614.503	-0.0051
614.84	-0.0055
615.176	-0.0088
615.513	-0.0113
615.85	-0.0137
616.187	-0.0073
616.523	-0.0088
616.86	-0.0087
617.196	-0.0134
617.533	-0.0119
617.869	-0.0075
618.205	-0.0062
618.542	-0.0047
618.878	-0.0068
619.214	-0.008
619.55	-0.0116
619.886	-0.0113
620.222	-0.0111
620.558	-0.0101
620.894	-0.0075
621.23	-0.0073
621.566	-0.0076
621.902	-0.0114
622.238	-0.0111
622.573	-0.0081
622.909	-0.0087
623.244	-0.0085
623.58	-0.0119
623.916	-0.0101
624.251	-0.0114
624.586	-0.0106
624.922	-0.0147
625.257	-0.0135
625.592	-0.0137
625.927	-0.0077
626.263	-0.0072
626.598	-0.0076
626.933	-0.0099
627.268	-0.0096
627.603	-0.0093
627.938	-0.0127
628.272	-0.0168
628.607	-0.0161
628.942	-0.0122
629.277	-0.0075
629.611	-0.0093
629.946	-0.0076
630.281	-0.0072
630.615	-0.0049
630.949	-0.0045
631.284	-0.0052
631.618	-0.0053
631.953	-0.0073
632.287	-0.0074
632.621	-0.0059
632.955	-0.0062
633.289	-0.0046
633.623	-0.0046
633.957	-0.003
634.291	-0.0087
634.625	-0.0089
634.959	-0.0093
635.293	-0.0076
635.627	-0.0111
635.96	-0.0101
636.294	-0.0106
636.627	-0.0069
636.961	-0.0098
637.294	-0.0096
637.628	-0.0121
637.961	-0.0104
638.295	-0.0111
638.628	-0.0128
638.961	-0.0128
639.294	-0.0087
639.628	-0.007
639.961	-0.0057
640.294	-0.0038
640.627	-0.0062
640.96	-0.0123
641.293	-0.0165
641.625	-0.0151
641.958	-0.0108
642.291	-0.0058
642.624	-0.0052
642.956	-0.0061
643.289	-0.0111
643.621	-0.0129
643.954	-0.0138
644.286	-0.0143
644.619	-0.0118
644.951	-0.0108
645.283	-0.0085
645.616	-0.011
645.948	-0.0104
646.28	-0.0149
646.612	-0.0134
646.944	-0.009
647.276	-0.0061
647.608	-0.0062
647.94	-0.0072
648.272	-0.0045
648.603	-0.0044
648.935	-0.0044
649.267	-0.0031
649.598	-0.004
649.93	-0.0111
650.261	-0.011
650.593	-0.0056
650.924	-0.0003
651.256	-0.0032
651.587	-0.0074
651.918	-0.0106
652.25	-0.0121
652.581	-0.0099
652.912	-0.0071
653.243	-0.005
653.574	-0.0058
653.905	-0.0131
654.236	-0.0155
654.567	-0.0152
654.897	-0.0125
655.228	-0.0113
655.559	-0.0088
655.89	-0.0041
656.22	-0.0063
656.551	-0.0055
656.881	-0.0063
657.212	-0.0058
657.542	-0.0095
657.872	-0.014
658.203	-0.009
658.533	-0.0186
658.863	-0.0179
659.193	-0.0141
659.523	-0.0116
659.853	-0.0071
660.183	-0.0131
660.513	-0.0164
660.843	-0.0143
661.173	-0.0126
661.503	-0.0121
661.833	-0.0097
662.162	-0.0128
662.492	-0.008
662.822	-0.0124
663.151	-0.0119
663.481	-0.0141
663.81	-0.0189
664.139	-0.0147
664.469	-0.0171
664.798	-0.0087
665.127	-0.0124
665.456	-0.0074
665.785	-0.0089
666.114	-0.0115
666.443	-0.0156
666.772	-0.013
667.101	-0.0132
667.43	-0.01
667.759	-0.0123
668.088	-0.0107
668.416	-0.0176
668.745	-0.0187
669.074	-0.02
669.402	-0.0189
669.731	-0.0138
670.059	-0.009
670.388	-0.0012
670.716	-0.0038
671.044	-0.0035
671.372	-0.0083
671.701	-0.0118
672.029	-0.0126
672.357	-0.0115
672.685	-0.0074
673.013	-0.0084
673.341	-0.0053
673.669	-0.0073
673.996	-0.0087
674.324	-0.0132
674.652	-0.0115
674.98	-0.0074
675.307	-0.0063
675.635	-0.0088
675.962	-0.0116
676.29	-0.0112
676.617	-0.0074
676.945	-0.0067
677.272	-0.0063
677.599	-0.0084
677.926	-0.0068
678.253	-0.0047
678.581	-0.0087
678.908	-0.0128
679.235	-0.0137
679.561	-0.0089
679.888	-0.0045
680.215	-0.0047
680.542	-0.006
680.869	-0.0136
681.195	-0.0103
681.522	-0.0105
681.849	-0.0044
682.175	-0.0095
682.502	-0.0102
682.828	-0.0101
683.154	-0.0105
683.481	-0.0092
683.807	-0.0108
684.133	-0.0077
684.459	-0.0088
684.785	-0.0098
685.111	-0.0142
685.437	-0.0131
685.763	-0.014
686.089	-0.0143
686.415	-0.018
686.741	-0.0162
687.067	-0.0107
687.392	-0.0126
687.718	-0.011
688.043	-0.012
688.369	-0.0101
688.694	-0.0073
689.02	-0.0088
689.345	-0.0036
689.67	-0.0116
689.996	-0.01
690.321	-0.013
690.646	-0.0086
690.971	-0.0105
691.296	-0.0104
691.621	-0.0137
691.946	-0.013
692.271	-0.0146
692.596	-0.0083
692.921	-0.0055
693.245	-0.0021
693.57	-0.0066
693.895	-0.0089
694.219	-0.0111
694.544	-0.012
694.868	-0.0138
695.193	-0.0156
695.517	-0.0154
695.841	-0.0156
696.166	-0.0141
696.49	-0.0132
696.814	-0.0113
697.138	-0.0085
697.462	-0.0082
697.786	-0.0056
698.11	-0.0093
698.434	-0.0059
698.758	-0.0084
699.081	-0.0084
699.405	-0.0117
699.729	-0.0106
700.052	-0.0148
700.376	-0.0108
700.7	-0.0118
701.023	-0.0066
701.346	-0.0113
701.67	-0.0101
701.993	-0.0139
702.316	-0.0131
702.639	-0.017
702.963	-0.0194
703.286	-0.0205
703.609	-0.023
703.932	-0.0206
704.255	-0.0173
704.578	-0.0125
704.9	-0.0073
705.223	-0.0076
705.546	-0.0111
705.868	-0.0164
706.191	-0.0222
706.514	-0.0201
706.836	-0.0164
707.159	-0.0124
707.481	-0.0106
707.803	-0.0136
708.126	-0.0108
708.448	-0.0148
708.77	-0.0129
709.092	-0.0155
709.414	-0.0135
709.736	-0.0136
710.058	-0.0117
710.38	-0.013
710.702	-0.0123
711.024	-0.0125
711.345	-0.0095
711.667	-0.0097
711.989	-0.0135
712.31	-0.0112
712.632	-0.0127
712.953	-0.0083
713.275	-0.01
713.596	-0.0068
713.917	-0.0063
714.239	-0.0119
714.56	-0.0117
714.881	-0.012
715.202	-0.01
715.523	-0.0114
715.844	-0.0091
716.165	-0.0102
716.486	-0.0137
716.807	-0.0166
717.128	-0.0142
717.448	-0.0129
717.769	-0.0134
718.09	-0.0098
718.41	-0.0082
718.731	-0.0074
719.051	-0.0119
719.372	-0.0061
719.692	-0.0077
720.012	-0.004
720.332	-0.0106
720.653	-0.0113
720.973	-0.0137
721.293	-0.0113
721.613	-0.0098
721.933	-0.0082
722.253	-0.0074
722.573	-0.0091
722.892	-0.0078
723.212	-0.0131
723.532	-0.0145
723.851	-0.015
724.171	-0.0132
724.491	-0.0131
724.81	-0.0159
725.129	-0.0111
725.449	-0.0084
725.768	-0.0112
726.087	-0.0152
726.407	-0.0129
726.726	-0.0082
727.045	-0.0047
727.364	-0.0078
727.683	-0.0081
728.002	-0.0133
728.321	-0.0105
728.64	-0.0091
728.958	-0.0065
729.277	-0.0088
729.596	-0.0116
729.914	-0.0148
730.233	-0.0161
730.551	-0.0185
730.87	-0.0167
731.188	-0.0117
731.507	-0.0096
731.825	-0.0094
732.143	-0.0173
732.461	-0.0181
732.779	-0.015
733.097	-0.0153
733.415	-0.0167
733.733	-0.021
734.051	-0.0164
734.369	-0.0138
734.687	-0.013
735.005	-0.0123
735.322	-0.013
735.64	-0.0138
735.957	-0.0126
736.275	-0.0097
736.592	-0.0062
736.91	-0.0079
737.227	-0.0124
737.544	-0.0126
737.862	-0.0077
738.179	-0.0046
738.496	-0.0055
738.813	-0.0108
739.13	-0.0146
739.447	-0.0151
739.764	-0.0204
740.081	-0.0183
740.398	-0.0157
740.714	-0.0076
741.031	-0.0065
741.348	-0.0102
741.664	-0.0139
741.981	-0.0164
742.297	-0.0138
742.614	-0.0133
742.93	-0.0117
743.246	-0.0163
743.563	-0.0154
743.879	-0.0159
744.195	-0.0121
744.511	-0.0149
744.827	-0.0129
745.143	-0.0128
745.459	-0.0136
745.775	-0.0125
746.091	-0.0166
746.406	-0.0143
746.722	-0.0173
747.038	-0.0168
747.353	-0.018
747.669	-0.0203
747.984	-0.0178
748.3	-0.017
748.615	-0.0197
748.93	-0.0169
749.246	-0.0154
749.561	-0.0109
749.876	-0.015
750.191	-0.0177
750.506	-0.0185
750.821	-0.014
751.136	-0.0137
751.451	-0.0099
751.766	-0.0114
752.08	-0.0099
752.395	-0.0122
752.71	-0.0162
753.024	-0.0208
753.339	-0.0138
753.653	-0.0098
753.968	-0.0106
754.282	-0.0173
754.596	-0.0133
754.911	-0.0076
755.225	-0.0032
755.539	-0.0109
755.853	-0.0071
756.167	-0.0109
756.481	-0.009
756.795	-0.0143
757.109	-0.0129
757.423	-0.0133
757.736	-0.0156
758.05	-0.0213
758.364	-0.0167
758.677	-0.0139
758.991	-0.0088
759.304	-0.0135
759.618	-0.0134
759.931	-0.0142
760.244	-0.0131
760.558	-0.0123
760.871	-0.0127
761.184	-0.0128
761.497	-0.0122
761.81	-0.0102
762.123	-0.0111
762.436	-0.0162
762.749	-0.0181
763.062	-0.0177
763.374	-0.0175
763.687	-0.0163
764	-0.0136
764.312	-0.0082
764.625	-0.0055
764.937	-0.0071
765.25	-0.0109
765.562	-0.0101
765.874	-0.0084
766.186	-0.0077
766.499	-0.0118
766.811	-0.0132
767.123	-0.0184
767.435	-0.0185
767.747	-0.0173
768.059	-0.0116
768.37	-0.0121
768.682	-0.0131
768.994	-0.0211
769.306	-0.0222
769.617	-0.0199
769.929	-0.0081
770.24	-0.0071
770.552	-0.0133
770.863	-0.0202
771.174	-0.0161
771.486	-0.0125
771.797	-0.0132
772.108	-0.0148
772.419	-0.0118
772.73	-0.0089
773.041	-0.0117
773.352	-0.0168
773.663	-0.0178
773.974	-0.016
774.285	-0.0175
774.595	-0.0178
774.906	-0.016
775.217	-0.0106
775.527	-0.0074
775.838	-0.0066
776.148	-0.0108
776.458	-0.0126
776.769	-0.0155
777.079	-0.015
777.389	-0.0146
777.699	-0.0119
778.009	-0.0141
778.319	-0.0134
778.629	-0.0137
778.939	-0.0129
779.249	-0.01
779.559	-0.0112
779.869	-0.0124
780.178	-0.0185
780.488	-0.021
780.798	-0.0189
781.107	-0.014
781.417	-0.0123
781.726	-0.0132
782.035	-0.0153
782.345	-0.0176
782.654	-0.0193
782.963	-0.0179
783.272	-0.0179
783.581	-0.0164
783.89	-0.016
784.199	-0.0108
784.508	-0.0131
784.817	-0.015
785.126	-0.0216
785.434	-0.0139
785.743	-0.0117
786.052	-0.0093
786.36	-0.0205
786.669	-0.0234
786.977	-0.0241
787.285	-0.017
787.594	-0.0157
787.902	-0.0153
788.21	-0.0172
788.518	-0.0125
788.826	-0.0084
789.135	-0.008
789.442	-0.0126
789.75	-0.0131
790.058	-0.0146
790.366	-0.0167
790.674	-0.0195
790.981	-0.0177
791.289	-0.0165
791.597	-0.0205
791.904	-0.0213
792.212	-0.0219
792.519	-0.0174
792.826	-0.0164
793.134	-0.0137
793.441	-0.0136
793.748	-0.0074
794.055	-0.0072
794.362	-0.0066
794.669	-0.0125
794.976	-0.0132
795.283	-0.014
795.59	-0.013
795.897	-0.0149
796.203	-0.0184
796.51	-0.0242
796.817	-0.0249
797.123	-0.0181
797.43	-0.0119
797.736	-0.0089
798.042	-0.0121
798.349	-0.009
798.655	-0.0061
798.961	-0.0048
799.267	-0.0106
799.573	-0.0146
799.879	-0.0169
800.185	-0.0121
800.491	-0.0078
800.797	-0.0081
801.103	-0.0138
801.408	-0.0202
801.714	-0.0191
802.02	-0.0158
802.325	-0.0093
802.631	-0.017
802.936	-0.0198
803.242	-0.0232
803.547	-0.0194
803.852	-0.0236
804.157	-0.0245
804.462	-0.0212
804.768	-0.0164
805.073	-0.0161
805.378	-0.0187
805.682	-0.0198
805.987	-0.0203
806.292	-0.0126
806.597	-0.0039
806.902	-0.0038
807.206	-0.0115
807.511	-0.0174
807.815	-0.0185
808.12	-0.0184
808.424	-0.0174
808.728	-0.0172
809.033	-0.0147
809.337	-0.0164
809.641	-0.012
809.945	-0.0129
810.249	-0.009
810.553	-0.0152
810.857	-0.0169
811.161	-0.0187
811.465	-0.018
811.768	-0.0155
812.072	-0.0251
812.376	-0.0194
812.679	-0.0204
812.983	-0.0122
813.286	-0.0213
813.59	-0.021
813.893	-0.0222
814.196	-0.013
814.499	-0.013
814.803	-0.0152
815.106	-0.016
815.409	-0.0129
815.712	-0.0064
816.015	-0.0104
816.318	-0.0152
816.62	-0.0214
816.923	-0.0191
817.226	-0.017
817.528	-0.0124
817.831	-0.0138
818.133	-0.0094
818.436	-0.013
818.738	-0.0121
819.041	-0.0199
819.343	-0.0146
819.645	-0.019
819.947	-0.0055
820.249	-0.0081
820.551	-0.0049
820.853	-0.0136
821.155	-0.017
821.457	-0.0167
821.759	-0.0156
822.061	-0.0155
822.362	-0.0163
822.664	-0.0181
822.966	-0.0113
823.267	-0.008
823.569	-0.0096
823.87	-0.0256
824.171	-0.026
824.473	-0.0182
824.774	-0.0041
825.075	-0.0049
825.376	-0.0125
825.677	-0.0113
825.978	-0.0107
826.279	-0.0105
826.58	-0.0035
826.881	-0.0072
827.181	-0.0047
827.482	-0.0099
827.783	-0.0074
828.083	-0.0152
828.384	-0.0278
828.684	-0.0339
828.985	-0.0255
829.285	-0.0248
829.585	-0.0209
829.885	-0.0273
830.185	-0.0219
830.486	-0.0188
830.786	-0.0102
831.086	-0.0054
831.385	-0.0122
831.685	-0.0133
831.985	-0.0193
832.285	-0.0169
832.585	-0.0133
832.884	-0.0099
833.184	-0.0087
833.483	-0.024
833.783	-0.0309
834.082	-0.0309
834.381	-0.0209
834.681	-0.0222
834.98	-0.0175
835.279	-0.0201
835.578	-0.0129
835.877	-0.021
836.176	-0.0155
836.475	-0.0125
836.774	-0.0138
837.072	-0.015
837.371	-0.0164
837.67	-0.0077
837.968	-0.0134
838.267	-0.0168
838.565	-0.0147
838.864	-0.0128
839.162	-0.0151
839.46	-0.0272
839.759	-0.0209
840.057	-0.02
840.355	-0.014
840.653	-0.0283
840.951	-0.0282
841.249	-0.0263
841.547	-0.0082
841.845	0.0084
842.142	0.0142
842.44	0.0006
842.738	-0.0109
843.035	-0.0235
843.333	-0.0258
843.63	-0.0191
843.928	-0.0062
844.225	0.0055
844.522	-0.0024
844.82	-0.0163
845.117	-0.0181
845.414	-0.0227
845.711	-0.0069
846.008	-0.0122
846.305	-0.0169
846.602	-0.0384
846.898	-0.0322
847.195	-0.0283
847.492	-0.0142
847.788	-0.0234
848.085	-0.0069
848.382	-0.0095
848.678	-0.0119
848.974	-0.019
849.271	-0.0059
849.567	-0.005
849.863	-0.0181
850.159	-0.0281
850.455	-0.0199
850.751	-0.0104
851.047	-0.0066
851.343	-0.0149
851.639	-0.0179
851.935	-0.0285
852.23	-0.0246
852.526	-0.0264
852.822	-0.0222
853.117	-0.015
853.413	-0.0138
853.708	-0.0179
854.003	-0.0042
854.299	0.0032
854.594	-0.0028
854.889	-0.03
855.184	-0.0405
855.479	-0.03
855.774	-0.019
856.069	-0.0177
856.364	-0.0162
856.659	-0.0214
856.954	0.0005
857.248	-0.0107
857.543	-0.0016
857.837	-0.0292
858.132	-0.0076
858.426	-0.0223
858.721	-0.0225
859.015	-0.0287
859.309	-0.0228
859.604	-0.0224
859.898	-0.0169
860.192	-0.0074
860.486	0.004
860.78	-0.0059
861.074	-0.0126
861.367	-0.0112
861.661	-0.0228
861.955	-0.0137
862.248	-0.0186
862.542	-0.0159
862.836	-0.0217
863.129	-0.0328
863.422	-0.015
863.716	-0.0168
864.009	0.0051
864.302	-0.0176
864.595	-0.0207
864.889	-0.0346
865.182	-0.0195
865.475	-0.0356
865.767	-0.0373
866.06	-0.0547
866.353	-0.0376
866.646	-0.033
866.938	-0.0207
867.231	-0.0213
867.524	-0.0099
867.816	0.0207
868.109	0.0223
868.401	0.0273
868.693	0.0064
868.985	-0.0057
869.278	-0.0235
869.57	-0.0236
869.862	-0.0391
870.154	-0.0413
870.446	-0.0503
870.738	-0.0466
871.029	-0.0624
871.321	-0.0612
871.613	-0.0379
871.904	-0.0139
872.196	0.0011
872.487	-0.0096
872.779	-0.0269
873.07	-0.0457
873.362	-0.0263
873.653	-0.0102
873.944	-0.0028
874.235	-0.0153
874.526	-0.0047
874.817	-0.0107
875.108	-0.0025
875.399	-0.0308
875.69	-0.0178
875.981	-0.0269
876.271	-0.0085
876.562	-0.0166
876.853	-0.0161
877.143	-0.0214
877.434	-0.026
877.724	-0.0378
878.014	-0.0259
878.305	-0.045
878.595	-0.0235
878.885	-0.028
879.175	-0.0065
879.465	-0.0177
879.755	-0.0153
880.045	-0.0005
880.335	0.0067
880.624	0.0149
880.914	0.0149
