Data from 1SS02BU_080317_1a_Absorbance_15-54-44-183.txt Node
Date: Sun Aug 06 15:54:44 MDT 2017
User: Tank Lab
Spectrometer: FLMS01220
Trigger mode: 0
Integration Time (sec): 1.000000E-1
Scans to average: 10
Electric dark correction enabled: true
Nonlinearity correction enabled: false
Boxcar width: 1
XAxis mode: Wavelengths
Number of Pixels in Spectrum: 2048
>>>>>Begin Spectral Data<<<<<
179.47	0.0398
179.856	0.0398
180.241	0.0179
180.626	0.1796
181.011	0.4561
181.396	0.4612
181.781	-0.6269
182.166	-0.2462
182.551	-0.3284
182.936	0.2731
183.321	-0
183.706	-0.7846
184.091	0.1175
184.476	-0.7175
184.86	-0
185.245	-0
185.63	-0.0321
186.015	0.5502
186.399	-0
186.784	0.0133
187.169	0.2592
187.553	-0.0311
187.938	-0.7548
188.322	0.0381
188.707	-0.0064
189.091	0.0372
189.475	0.0483
189.86	0.095
190.244	0.1242
190.629	0.1093
191.013	0.104
191.397	0.1204
191.781	0.1658
192.165	0.2018
192.55	0.1921
192.934	0.1969
193.318	0.1963
193.702	0.2166
194.086	0.2201
194.47	0.2217
194.854	0.217
195.238	0.215
195.622	0.2112
196.006	0.2194
196.389	0.2241
196.773	0.2284
197.157	0.2172
197.541	0.2191
197.924	0.2169
198.308	0.2154
198.692	0.2114
199.075	0.2103
199.459	0.2107
199.843	0.2088
200.226	0.2095
200.61	0.2074
200.993	0.2043
201.376	0.1997
201.76	0.198
202.143	0.196
202.527	0.1937
202.91	0.1943
203.293	0.1949
203.676	0.1934
204.059	0.1926
204.443	0.1897
204.826	0.1903
205.209	0.1902
205.592	0.1899
205.975	0.1921
206.358	0.188
206.741	0.1844
207.124	0.1788
207.507	0.1818
207.89	0.1799
208.273	0.1822
208.655	0.1796
209.038	0.182
209.421	0.1784
209.804	0.177
210.186	0.1771
210.569	0.1777
210.951	0.1757
211.334	0.172
211.717	0.1692
212.099	0.1692
212.482	0.1723
212.864	0.1765
213.246	0.1776
213.629	0.1721
214.011	0.1672
214.393	0.1662
214.776	0.1669
215.158	0.1661
215.54	0.1664
215.922	0.1688
216.305	0.1684
216.687	0.1669
217.069	0.1647
217.451	0.1642
217.833	0.1627
218.215	0.1621
218.597	0.1618
218.979	0.1608
219.361	0.1575
219.742	0.1565
220.124	0.1564
220.506	0.156
220.888	0.1555
221.27	0.1534
221.651	0.1548
222.033	0.1536
222.415	0.1533
222.796	0.152
223.178	0.1537
223.559	0.1528
223.941	0.1526
224.322	0.1512
224.704	0.1507
225.085	0.1519
225.466	0.1494
225.848	0.1483
226.229	0.1456
226.61	0.145
226.992	0.1429
227.373	0.1419
227.754	0.142
228.135	0.1441
228.516	0.1442
228.897	0.1446
229.278	0.1438
229.659	0.1435
230.04	0.1441
230.421	0.1433
230.802	0.1424
231.183	0.1399
231.564	0.1402
231.944	0.1393
232.325	0.1384
232.706	0.1372
233.087	0.137
233.467	0.136
233.848	0.1355
234.229	0.1345
234.609	0.1351
234.99	0.1355
235.37	0.1346
235.751	0.1347
236.131	0.1314
236.511	0.13
236.892	0.1284
237.272	0.1306
237.652	0.1321
238.033	0.1304
238.413	0.1288
238.793	0.1278
239.173	0.1287
239.553	0.1269
239.933	0.1248
240.313	0.1228
240.694	0.1233
241.074	0.1242
241.453	0.1244
241.833	0.1235
242.213	0.1212
242.593	0.1209
242.973	0.1215
243.353	0.1224
243.732	0.1211
244.112	0.1189
244.492	0.1175
244.872	0.1171
245.251	0.1174
245.631	0.1164
246.01	0.1164
246.39	0.117
246.769	0.1181
247.149	0.1176
247.528	0.1157
247.908	0.1165
248.287	0.1151
248.666	0.1156
249.045	0.1131
249.425	0.113
249.804	0.1126
250.183	0.1124
250.562	0.1128
250.941	0.112
251.32	0.1105
251.699	0.1101
252.078	0.1102
252.457	0.1107
252.836	0.1117
253.215	0.1112
253.594	0.1109
253.973	0.1093
254.352	0.1084
254.731	0.1078
255.109	0.1072
255.488	0.1063
255.867	0.107
256.245	0.107
256.624	0.1076
257.002	0.1075
257.381	0.1066
257.759	0.1066
258.138	0.1068
258.516	0.106
258.895	0.1052
259.273	0.1047
259.651	0.1056
260.03	0.1055
260.408	0.1042
260.786	0.1037
261.164	0.1029
261.542	0.1021
261.921	0.1008
262.299	0.0999
262.677	0.1003
263.055	0.0995
263.433	0.1002
263.811	0.0991
264.188	0.1014
264.566	0.1013
264.944	0.1015
265.322	0.0991
265.7	0.0978
266.077	0.0971
266.455	0.098
266.833	0.0992
267.21	0.0991
267.588	0.0973
267.966	0.0953
268.343	0.0951
268.721	0.0948
269.098	0.095
269.475	0.0953
269.853	0.0969
270.23	0.0965
270.607	0.0949
270.985	0.0924
271.362	0.092
271.739	0.0915
272.116	0.0918
272.494	0.0913
272.871	0.0913
273.248	0.089
273.625	0.089
274.002	0.0885
274.379	0.0903
274.756	0.0888
275.132	0.0877
275.509	0.087
275.886	0.0864
276.263	0.0874
276.64	0.0866
277.016	0.0874
277.393	0.086
277.77	0.085
278.146	0.0834
278.523	0.0816
278.899	0.0815
279.276	0.0813
279.652	0.0827
280.029	0.0812
280.405	0.0816
280.782	0.0788
281.158	0.0797
281.534	0.0785
281.91	0.0798
282.287	0.079
282.663	0.0797
283.039	0.079
283.415	0.0792
283.791	0.0786
284.167	0.0782
284.543	0.0781
284.919	0.0758
285.295	0.0748
285.671	0.0735
286.047	0.0747
286.423	0.0754
286.799	0.0751
287.174	0.0746
287.55	0.074
287.926	0.0735
288.301	0.0739
288.677	0.0739
289.053	0.0738
289.428	0.0717
289.804	0.071
290.179	0.0711
290.555	0.0717
290.93	0.0715
291.305	0.0696
291.681	0.0693
292.056	0.0698
292.431	0.0722
292.806	0.0721
293.182	0.071
293.557	0.0689
293.932	0.0672
294.307	0.0693
294.682	0.068
295.057	0.0687
295.432	0.0653
295.807	0.0652
296.182	0.0644
296.557	0.0646
296.932	0.0648
297.306	0.0655
297.681	0.0652
298.056	0.0646
298.43	0.0634
298.805	0.0633
299.18	0.0639
299.554	0.064
299.929	0.0633
300.303	0.0642
300.678	0.0635
301.052	0.0624
301.427	0.0606
301.801	0.0608
302.175	0.061
302.55	0.0607
302.924	0.0603
303.298	0.0596
303.672	0.0598
304.046	0.059
304.421	0.0577
304.795	0.0567
305.169	0.0565
305.543	0.0583
305.917	0.0589
306.291	0.059
306.664	0.058
307.038	0.0573
307.412	0.0581
307.786	0.059
308.16	0.0575
308.533	0.0553
308.907	0.054
309.281	0.0557
309.654	0.0565
310.028	0.0567
310.401	0.0545
310.775	0.0549
311.148	0.0532
311.522	0.0538
311.895	0.052
312.268	0.0533
312.642	0.0517
313.015	0.0529
313.388	0.052
313.761	0.0524
314.135	0.0505
314.508	0.0505
314.881	0.0513
315.254	0.0504
315.627	0.0506
316	0.05
316.373	0.0508
316.746	0.0504
317.118	0.0492
317.491	0.0491
317.864	0.0482
318.237	0.0481
318.61	0.0482
318.982	0.0463
319.355	0.047
319.727	0.0475
320.1	0.0488
320.473	0.0472
320.845	0.0474
321.218	0.0486
321.59	0.0477
321.962	0.0454
322.335	0.0447
322.707	0.0464
323.079	0.0471
323.452	0.0463
323.824	0.0459
324.196	0.047
324.568	0.0477
324.94	0.0474
325.312	0.0471
325.684	0.0458
326.056	0.0446
326.428	0.043
326.8	0.0425
327.172	0.0437
327.544	0.0438
327.915	0.0452
328.287	0.0435
328.659	0.0425
329.031	0.0412
329.402	0.0405
329.774	0.0395
330.145	0.0382
330.517	0.0392
330.888	0.0392
331.26	0.0414
331.631	0.0402
332.003	0.0412
332.374	0.0393
332.745	0.0395
333.117	0.0363
333.488	0.0352
333.859	0.0362
334.23	0.0378
334.601	0.0386
334.972	0.0369
335.343	0.0368
335.714	0.0357
336.085	0.0351
336.456	0.0351
336.827	0.0365
337.198	0.0365
337.569	0.0366
337.94	0.0342
338.31	0.0351
338.681	0.0346
339.052	0.0342
339.422	0.0326
339.793	0.0316
340.164	0.0327
340.534	0.0329
340.905	0.0325
341.275	0.0324
341.645	0.0322
342.016	0.033
342.386	0.0312
342.756	0.0314
343.127	0.0315
343.497	0.0325
343.867	0.0315
344.237	0.0298
344.607	0.0312
344.977	0.0321
345.347	0.0342
345.717	0.0326
346.087	0.0312
346.457	0.0306
346.827	0.0295
347.197	0.0293
347.567	0.0283
347.936	0.0285
348.306	0.0294
348.676	0.0296
349.046	0.0297
349.415	0.0305
349.785	0.0295
350.154	0.0285
350.524	0.0293
350.893	0.0303
351.263	0.0323
351.632	0.0304
352.001	0.0281
352.371	0.0274
352.74	0.0277
353.109	0.029
353.478	0.0294
353.847	0.0299
354.217	0.0305
354.586	0.0299
354.955	0.0272
355.324	0.0255
355.693	0.024
356.062	0.0261
356.43	0.0268
356.799	0.0261
357.168	0.0243
357.537	0.0253
357.906	0.0266
358.274	0.0287
358.643	0.0269
359.011	0.0265
359.38	0.0252
359.749	0.0251
360.117	0.025
360.486	0.0236
360.854	0.0243
361.222	0.0244
361.591	0.0235
361.959	0.0216
362.327	0.0207
362.695	0.0209
363.064	0.0211
363.432	0.0199
363.8	0.0205
364.168	0.0205
364.536	0.0233
364.904	0.024
365.272	0.0237
365.64	0.023
366.008	0.0212
366.376	0.021
366.743	0.0197
367.111	0.0204
367.479	0.0229
367.847	0.0242
368.214	0.0227
368.582	0.0216
368.949	0.0189
369.317	0.0222
369.684	0.0198
370.052	0.022
370.419	0.0208
370.787	0.0231
371.154	0.0218
371.521	0.0222
371.889	0.0204
372.256	0.0217
372.623	0.0204
372.99	0.0204
373.357	0.0179
373.724	0.0179
374.091	0.0165
374.458	0.0175
374.825	0.0172
375.192	0.0187
375.559	0.0189
375.926	0.0194
376.293	0.0189
376.659	0.0175
377.026	0.0167
377.393	0.0179
377.759	0.0177
378.126	0.0182
378.492	0.0176
378.859	0.0178
379.225	0.0159
379.592	0.0154
379.958	0.0177
380.325	0.0194
380.691	0.0194
381.057	0.0181
381.423	0.0182
381.79	0.0157
382.156	0.0154
382.522	0.0149
382.888	0.0164
383.254	0.0143
383.62	0.0139
383.986	0.0137
384.352	0.0156
384.718	0.0151
385.084	0.0148
385.449	0.0137
385.815	0.0134
386.181	0.0141
386.547	0.0135
386.912	0.0117
387.278	0.0106
387.643	0.0105
388.009	0.0122
388.374	0.0136
388.74	0.0158
389.105	0.0148
389.471	0.015
389.836	0.0145
390.201	0.0166
390.566	0.0153
390.932	0.0154
391.297	0.0142
391.662	0.0131
392.027	0.0109
392.392	0.0099
392.757	0.0108
393.122	0.012
393.487	0.0131
393.852	0.0131
394.217	0.0142
394.582	0.0131
394.946	0.0145
395.311	0.0148
395.676	0.0146
396.04	0.0111
396.405	0.0092
396.77	0.0099
397.134	0.0106
397.499	0.0109
397.863	0.0103
398.227	0.0111
398.592	0.0122
398.956	0.0123
399.32	0.0131
399.685	0.0127
400.049	0.0133
400.413	0.0134
400.777	0.0136
401.141	0.0104
401.505	0.0089
401.869	0.0068
402.233	0.0089
402.597	0.0093
402.961	0.0108
403.325	0.0099
403.689	0.0104
404.053	0.0096
404.416	0.0079
404.78	0.0086
405.144	0.0097
405.507	0.0093
405.871	0.0081
406.234	0.0061
406.598	0.0081
406.961	0.0094
407.325	0.0104
407.688	0.0106
408.051	0.0096
408.415	0.0086
408.778	0.009
409.141	0.0061
409.504	0.0071
409.867	0.0065
410.23	0.0075
410.593	0.0064
410.956	0.0064
411.319	0.0066
411.682	0.0073
412.045	0.0078
412.408	0.0094
412.771	0.0085
413.134	0.0088
413.496	0.0082
413.859	0.0085
414.222	0.0101
414.584	0.0114
414.947	0.0128
415.309	0.0093
415.672	0.0082
416.034	0.0087
416.396	0.0094
416.759	0.012
417.121	0.0108
417.483	0.0111
417.846	0.008
418.208	0.0083
418.57	0.007
418.932	0.0051
419.294	0.0035
419.656	0.0063
420.018	0.0082
420.38	0.0097
420.742	0.0084
421.104	0.0068
421.466	0.0089
421.827	0.0102
422.189	0.0127
422.551	0.0109
422.912	0.01
423.274	0.0091
423.636	0.0066
423.997	0.0046
424.359	0.0052
424.72	0.0068
425.081	0.0072
425.443	0.0064
425.804	0.0071
426.165	0.0076
426.527	0.0078
426.888	0.0069
427.249	0.0083
427.61	0.0083
427.971	0.0064
428.332	0.0044
428.693	0.0053
429.054	0.0071
429.415	0.008
429.776	0.0054
430.137	0.0047
430.498	0.0043
430.858	0.0055
431.219	0.0061
431.58	0.0089
431.94	0.0088
432.301	0.007
432.661	0.004
433.022	0.0026
433.382	0.0028
433.743	0.0023
434.103	0.0046
434.463	0.006
434.824	0.008
435.184	0.0068
435.544	0.0064
435.904	0.0075
436.264	0.0078
436.624	0.008
436.985	0.0063
437.345	0.0062
437.704	0.0046
438.064	0.0042
438.424	0.0059
438.784	0.0064
439.144	0.0072
439.504	0.0064
439.863	0.0084
440.223	0.0054
440.583	0.0022
440.942	-0.0002
441.302	0.0032
441.661	0.0079
442.021	0.0079
442.38	0.0073
442.739	0.0046
443.099	0.0072
443.458	0.0061
443.817	0.0054
444.176	0.0063
444.536	0.0062
444.895	0.0068
445.254	0.005
445.613	0.0063
445.972	0.0072
446.331	0.0078
446.69	0.007
447.049	0.007
447.407	0.0058
447.766	0.0078
448.125	0.0096
448.484	0.0107
448.842	0.0096
449.201	0.0057
449.559	0.004
449.918	0.0048
450.276	0.005
450.635	0.0055
450.993	0.0023
451.352	0.0037
451.71	0.0048
452.068	0.0068
452.426	0.0076
452.785	0.0037
453.143	0.0031
453.501	0.0029
453.859	0.0057
454.217	0.0036
454.575	0.0018
454.933	0.0012
455.291	0.0047
455.649	0.0059
456.006	0.0089
456.364	0.0045
456.722	0.0045
457.079	0.0016
457.437	0.0039
457.795	0.0018
458.152	0.0028
458.51	0.0043
458.867	0.0057
459.225	0.0054
459.582	0.0046
459.939	0.0069
460.297	0.0062
460.654	0.0043
461.011	0.0033
461.368	0.0038
461.725	0.0056
462.082	0.0051
462.44	0.0076
462.797	0.0088
463.153	0.0094
463.51	0.0065
463.867	0.004
464.224	0.0022
464.581	0.0026
464.938	0.0034
465.294	0.0037
465.651	0.0039
466.008	0.0036
466.364	0.0059
466.721	0.0055
467.077	0.0063
467.434	0.0041
467.79	0.0037
468.146	0.0025
468.503	0.0029
468.859	0.0042
469.215	0.0056
469.571	0.0078
469.927	0.0086
470.284	0.008
470.64	0.0043
470.996	0.0033
471.352	0.0012
471.707	0.0038
472.063	0.0044
472.419	0.0061
472.775	0.0068
473.131	0.0062
473.486	0.0081
473.842	0.0057
474.198	0.0048
474.553	0.004
474.909	0.0037
475.264	0.0011
475.62	-0.0001
475.975	0.0011
476.331	0.0024
476.686	0.0025
477.041	0.0005
477.396	0.0023
477.752	0.0004
478.107	0.0013
478.462	0.0008
478.817	0.0036
479.172	0.0041
479.527	0.0042
479.882	0.0046
480.237	0.0053
480.591	0.003
480.946	0.0024
481.301	0.0024
481.656	0.0043
482.01	0.0038
482.365	0.0024
482.72	0.0009
483.074	0.0008
483.429	-0.0003
483.783	0.0009
484.137	0.0014
484.492	0.001
484.846	0.0022
485.2	0.0005
485.555	0.0037
485.909	0.0029
486.263	0.0036
486.617	0.0022
486.971	0.0007
487.325	0.0005
487.679	-0.0001
488.033	0.0008
488.387	0
488.741	-0.0008
489.094	0.0005
489.448	0.002
489.802	0.0048
490.156	0.0022
490.509	0.0011
490.863	0.0007
491.216	0.0007
491.57	0.0013
491.923	0.0004
492.277	0.0016
492.63	0.0031
492.983	0.0032
493.337	0.0027
493.69	0.0024
494.043	0.0021
494.396	0.0046
494.749	0.0035
495.102	0.0057
495.455	0.0036
495.808	0.0016
496.161	-0.0022
496.514	-0.0014
496.867	0.0019
497.22	0.0034
497.572	0.001
497.925	0
498.278	0.0011
498.63	0.0014
498.983	0.0004
499.335	0.001
499.688	0.0025
500.04	0.0037
500.393	0.0016
500.745	0.0009
501.097	0.0009
501.449	0.0017
501.802	0.0032
502.154	0
502.506	-0.0008
502.858	-0.0036
503.21	-0.0023
503.562	-0.0004
503.914	0.0017
504.266	0.0012
504.618	0.001
504.969	0.0008
505.321	0.0018
505.673	-0.0006
506.025	0.0013
506.376	0.0025
506.728	0.0047
507.079	0.0013
507.431	-0.0013
507.782	-0.0032
508.134	-0.0038
508.485	-0.0034
508.836	-0.0031
509.188	-0.0009
509.539	-0.0008
509.89	-0.0011
510.241	-0.0015
510.592	-0.0015
510.943	-0.0026
511.294	-0.0013
511.645	-0.0005
511.996	0.0015
512.347	-0.0019
512.698	-0.0011
513.049	-0.0036
513.399	-0.0021
513.75	-0.0038
514.101	-0.0036
514.451	-0.0022
514.802	-0.0009
515.152	0.0013
515.503	-0.0002
515.853	-0.0001
516.203	0.0006
516.554	0.001
516.904	0.0006
517.254	0.0012
517.604	0.0006
517.955	0.0002
518.305	-0.002
518.655	-0.0011
519.005	-0.0013
519.355	-0.0029
519.705	-0.0042
520.055	-0.0025
520.404	-0.0014
520.754	0.0004
521.104	-0.0025
521.454	-0.0012
521.803	-0.0013
522.153	0.0006
522.502	0.0012
522.852	0.0006
523.201	0.0006
523.551	-0.0002
523.9	0.0011
524.249	0.0024
524.599	0.0011
524.948	-0.0001
525.297	-0.001
525.646	0.0013
525.995	0.0041
526.344	0.0047
526.694	0.0047
527.042	0.0014
527.391	-0.0004
527.74	-0.0025
528.089	-0.0039
528.438	-0.0022
528.787	-0.0012
529.135	-0.0008
529.484	-0.0006
529.833	0.0005
530.181	0.0018
530.53	0.0014
530.878	0.0012
531.227	-0.0005
531.575	0.0007
531.923	0.0002
532.271	0.0014
532.62	-0
532.968	0.0009
533.316	0.0022
533.664	0.003
534.012	0.0008
534.36	-0.0005
534.708	-0.0045
535.056	-0.0024
535.404	-0.0018
535.752	0.003
536.1	0.0014
536.447	0.0027
536.795	-0.0008
537.143	-0.0026
537.49	-0.0035
537.838	-0.0029
538.185	-0.0011
538.533	-0.0009
538.88	-0.0008
539.228	-0.0002
539.575	-0.0009
539.922	0.0001
540.269	-0.0003
540.617	-0.0002
540.964	0
541.311	-0.002
541.658	-0.001
542.005	0.0001
542.352	0.0028
542.699	0.002
543.045	0.0001
543.392	-0.0005
543.739	-0.0026
544.086	-0.0043
544.432	-0.0039
544.779	-0.0019
545.126	-0.001
545.472	0.0013
545.819	0.0035
546.165	0.0069
546.512	0.0001
546.858	-0.0006
547.204	-0.0034
547.55	0.0002
547.897	-0.0012
548.243	-0.0002
548.589	0.0002
548.935	-0.0013
549.281	-0.0018
549.627	-0.0027
549.973	-0.0032
550.319	-0.0041
550.665	-0.002
551.01	-0.0011
551.356	-0.0003
551.702	-0.0014
552.048	-0.0006
552.393	0.0005
552.739	-0.0006
553.084	-0.0015
553.43	-0.0023
553.775	-0.0018
554.12	-0.0008
554.466	-0.0011
554.811	-0.003
555.156	-0.0031
555.502	-0.0038
555.847	0.0006
556.192	0.0009
556.537	0.0032
556.882	-0.0007
557.227	-0.0011
557.572	-0.0009
557.917	0.0008
558.261	0.0008
558.606	-0.0001
558.951	-0.0009
559.295	0.0001
559.64	-0.0023
559.985	-0.0047
560.329	-0.0065
560.674	-0.0038
561.018	-0.0026
561.363	-0.0028
561.707	-0.0042
562.051	-0.0035
562.395	-0.0023
562.74	-0.0005
563.084	-0
563.428	0.0002
563.772	0.0009
564.116	0.0004
564.46	0.0044
564.804	0.0016
565.148	0.0028
565.492	-0.0021
565.835	0.0009
566.179	0.0011
566.523	-0.0012
566.866	-0.0059
567.21	-0.0076
567.554	-0.0058
567.897	-0.0033
568.24	-0.002
568.584	-0.0038
568.927	-0.0029
569.271	-0.0045
569.614	-0.004
569.957	-0.0049
570.3	-0.0035
570.643	-0.001
570.986	0.0002
571.329	-0.0008
571.672	0.0006
572.015	0
572.358	0.0008
572.701	-0.0035
573.044	-0.0024
573.387	-0.002
573.729	-0
574.072	-0.0012
574.414	-0.0018
574.757	-0.0028
575.099	-0.0019
575.442	-0.0027
575.784	-0.0014
576.127	-0.0027
576.469	-0.0016
576.811	-0.0008
577.153	-0.0014
577.496	-0.0005
577.838	-0.0028
578.18	-0.0021
578.522	-0.0046
578.864	-0.0069
579.206	-0.0075
579.548	-0.0054
579.889	-0.0034
580.231	-0.0026
580.573	-0.0035
580.915	-0.004
581.256	-0.0045
581.598	-0.0048
581.939	-0.0041
582.281	-0.0034
582.622	-0.0026
582.964	-0.002
583.305	-0.0026
583.646	-0.0035
583.988	-0.0025
584.329	-0.0045
584.67	-0.0039
585.011	-0.005
585.352	-0.002
585.693	-0.0021
586.034	-0.0022
586.375	-0.0061
586.716	-0.0064
587.057	-0.0035
587.398	-0.0017
587.738	-0.0012
588.079	-0.003
588.42	-0.0026
588.76	-0.0042
589.101	-0.0041
589.441	-0.0044
589.782	-0.0047
590.122	-0.0051
590.463	-0.0053
590.803	-0.0028
591.143	-0.0028
591.483	-0.0012
591.823	0.0004
592.164	-0.0002
592.504	-0.0028
592.844	-0.0054
593.184	-0.0022
593.523	-0.0012
593.863	-0.0018
594.203	-0.0031
594.543	-0.0019
594.883	-0.0024
595.222	-0.0019
595.562	-0.0039
595.901	-0.0047
596.241	-0.0063
596.58	-0.0044
596.92	-0.0028
597.259	-0.0027
597.599	-0.0045
597.938	-0.0042
598.277	-0.0052
598.616	-0.0053
598.955	-0.0053
599.295	-0.0048
599.634	-0.0032
599.973	-0.0055
600.312	-0.0045
600.65	-0.0051
600.989	-0.0041
601.328	-0.0025
601.667	-0.0039
602.005	-0.0074
602.344	-0.009
602.683	-0.0066
603.021	-0.004
603.36	-0.0024
603.698	-0.0041
604.037	-0.003
604.375	-0.0015
604.713	-0.0014
605.052	-0.0002
605.39	-0.0031
605.728	-0.0037
606.066	-0.0063
606.404	-0.0056
606.742	-0.0051
607.08	-0.0037
607.418	-0.003
607.756	-0.0036
608.094	-0.0033
608.431	-0.0054
608.769	-0.0043
609.107	-0.0041
609.444	-0.0031
609.782	-0.0042
610.12	-0.0041
610.457	-0.0044
610.794	-0.0021
611.132	-0.0044
611.469	-0.0034
611.806	-0.0056
612.144	-0.0064
612.481	-0.007
612.818	-0.0075
613.155	-0.0044
613.492	-0.0041
613.829	-0.0006
614.166	-0.0027
614.503	-0.002
614.84	-0.0043
615.176	-0.0015
615.513	-0.0015
615.85	-0.0001
616.187	0.0008
616.523	0.0003
616.86	-0.0006
617.196	-0.0009
617.533	-0.0005
617.869	-0.001
618.205	-0.0036
618.542	-0.0031
618.878	-0.0038
619.214	-0.0028
619.55	-0.0035
619.886	-0.0026
620.222	-0.002
620.558	-0.0033
620.894	-0.0047
621.23	-0.0059
621.566	-0.0053
621.902	-0.0018
622.238	-0.0002
622.573	-0.0016
622.909	-0.004
623.244	-0.0048
623.58	-0.004
623.916	-0.0021
624.251	-0.004
624.586	-0.0038
624.922	-0.0054
625.257	-0.0048
625.592	-0.005
625.927	-0.0051
626.263	-0.0043
626.598	-0.0052
626.933	-0.0056
627.268	-0.0031
627.603	-0.0055
627.938	-0.0089
628.272	-0.0111
628.607	-0.0103
628.942	-0.0064
629.277	-0.0094
629.611	-0.0117
629.946	-0.0146
630.281	-0.0101
630.615	-0.0056
630.949	-0.0038
631.284	-0.0033
631.618	-0.0014
631.953	-0.0017
632.287	-0.0047
632.621	-0.0087
632.955	-0.0065
633.289	-0.0061
633.623	-0.007
633.957	-0.0051
634.291	-0.0057
634.625	-0.003
634.959	-0.0057
635.293	-0.0052
635.627	-0.0039
635.96	-0.0043
636.294	-0.0046
636.627	-0.0038
636.961	-0.0033
637.294	-0.0004
637.628	-0.0013
637.961	-0.0032
638.295	-0.0061
638.628	-0.006
638.961	-0.008
639.294	-0.005
639.628	-0.0058
639.961	-0.0042
640.294	-0.0117
640.627	-0.0125
640.96	-0.0115
641.293	-0.0063
641.625	-0.0075
641.958	-0.0074
642.291	-0.0096
642.624	-0.0051
642.956	-0.0042
643.289	0.0008
643.621	-0.0023
643.954	-0.0065
644.286	-0.0068
644.619	-0.0059
644.951	-0.0044
645.283	-0.0012
645.616	-0.0029
645.948	-0.0026
646.28	-0.006
646.612	-0.0081
646.944	-0.003
647.276	-0.0068
647.608	-0.0088
647.94	-0.0127
648.272	-0.0121
648.603	-0.0028
648.935	-0.0076
649.267	-0.0059
649.598	-0.0111
649.93	-0.0044
650.261	-0.0061
650.593	-0.0106
650.924	-0.0132
651.256	-0.0096
651.587	-0.0066
651.918	-0.0053
652.25	-0.0044
652.581	-0.0038
652.912	-0.0023
653.243	-0.0052
653.574	-0.0014
653.905	-0.0036
654.236	-0.0018
654.567	-0.0045
654.897	-0.0067
655.228	-0.0063
655.559	-0.0056
655.89	-0.0039
656.22	-0.0057
656.551	-0.0088
656.881	-0.0073
657.212	-0.0069
657.542	-0.0059
657.872	-0.0038
658.203	-0.0056
658.533	-0.0011
658.863	-0.0032
659.193	-0.0041
659.523	-0.0044
659.853	-0.0051
660.183	-0.0002
660.513	-0.002
660.843	-0.0009
661.173	-0.0024
661.503	-0.0004
661.833	-0.0035
662.162	-0.0058
662.492	-0.0058
662.822	-0.0081
663.151	-0.01
663.481	-0.0124
663.81	-0.0091
664.139	-0.009
664.469	-0.006
664.798	-0.0029
665.127	-0.0015
665.456	-0.0026
665.785	-0.0042
666.114	-0.0051
666.443	-0.0062
666.772	-0.0127
667.101	-0.0121
667.43	-0.0118
667.759	-0.006
668.088	-0.0069
668.416	-0.0098
668.745	-0.011
669.074	-0.0121
669.402	-0.0102
669.731	-0.009
670.059	-0.0097
670.388	-0.0083
670.716	-0.0102
671.044	-0.0085
671.372	-0.011
671.701	-0.0091
672.029	-0.0069
672.357	-0.0008
672.685	0.0037
673.013	0.0033
673.341	-0.0011
673.669	-0.0052
673.996	-0.0043
674.324	0.002
674.652	0.0024
674.98	-0.0013
675.307	-0.0059
675.635	-0.0053
675.962	-0.0061
676.29	-0.0074
676.617	-0.0084
676.945	-0.0057
677.272	-0.0063
677.599	-0.0068
677.926	-0.0055
678.253	-0.0049
678.581	-0.0069
678.908	-0.0075
679.235	-0.005
679.561	-0.006
679.888	-0.0048
680.215	-0.0051
680.542	-0.0081
680.869	-0.0086
681.195	-0.011
681.522	-0.0068
681.849	-0.0059
682.175	-0.0076
682.502	-0.008
682.828	-0.0091
683.154	-0.0021
683.481	-0.0003
683.807	0.0006
684.133	-0.005
684.459	-0.0107
684.785	-0.0105
685.111	-0.0084
685.437	-0.007
685.763	-0.0112
686.089	-0.0109
686.415	-0.0053
686.741	0.0026
687.067	-0.0018
687.392	-0.0039
687.718	-0.0073
688.043	-0.0059
688.369	-0.0041
688.694	-0.0029
689.02	-0.0033
689.345	-0.0103
689.67	-0.0132
689.996	-0.0136
690.321	-0.0074
690.646	-0.0072
690.971	-0.0064
691.296	-0.0053
691.621	-0.0022
691.946	-0.002
692.271	-0.0072
692.596	-0.0087
692.921	-0.0058
693.245	0.0016
693.57	-0.0002
693.895	0
694.219	-0.0077
694.544	-0.0053
694.868	-0.0098
695.193	-0.0087
695.517	-0.0111
695.841	-0.0081
696.166	-0.0067
696.49	-0.0052
696.814	-0.0087
697.138	-0.0099
697.462	-0.0069
697.786	-0.0042
698.11	-0.0039
698.434	-0.009
698.758	-0.0132
699.081	-0.0146
699.405	-0.0143
699.729	-0.0123
700.052	-0.0091
700.376	-0.0119
700.7	-0.0102
701.023	-0.012
701.346	-0.0076
701.67	-0.006
701.993	-0.0065
702.316	-0.0067
702.639	-0.0053
702.963	-0.0088
703.286	-0.0129
703.609	-0.011
703.932	-0.0041
704.255	-0.0025
704.578	-0.0082
704.9	-0.0092
705.223	-0.0071
705.546	-0.0089
705.868	-0.0081
706.191	-0.0076
706.514	-0.0062
706.836	-0.0023
707.159	0.0004
707.481	0.0034
707.803	-0.002
708.126	-0.0063
708.448	-0.0036
708.77	0.0018
709.092	0.0033
709.414	0.0046
709.736	-0.0013
710.058	-0.001
710.38	-0.0018
710.702	-0.0047
711.024	-0.0054
711.345	-0.0093
711.667	-0.004
711.989	-0.0072
712.31	-0.0056
712.632	-0.0129
712.953	-0.0099
713.275	-0.0122
713.596	-0.0089
713.917	-0.0094
714.239	-0.0057
714.56	-0.004
714.881	-0.0062
715.202	-0.0081
715.523	-0.0056
715.844	-0.0004
716.165	-0.0028
716.486	-0.0051
716.807	-0.0102
717.128	-0.0112
717.448	-0.0091
717.769	-0.008
718.09	-0.0057
718.41	-0.0109
718.731	-0.0149
719.051	-0.0168
719.372	-0.0175
719.692	-0.014
720.012	-0.0108
720.332	-0.0101
720.653	-0.0089
720.973	-0.0107
721.293	-0.0095
721.613	-0.0085
721.933	-0.006
722.253	-0.0052
722.573	-0.005
722.892	-0.0103
723.212	-0.0073
723.532	-0.0092
723.851	-0.0133
724.171	-0.013
724.491	-0.0139
724.81	-0.0063
725.129	-0.0127
725.449	-0.01
725.768	-0.0114
726.087	-0.0066
726.407	-0.0105
726.726	-0.0078
727.045	-0.0078
727.364	-0.0018
727.683	-0.0053
728.002	-0.0081
728.321	-0.0122
728.64	-0.013
728.958	-0.0126
729.277	-0.0129
729.596	-0.011
729.914	-0.0126
730.233	-0.0068
730.551	-0.009
730.87	-0.0078
731.188	-0.011
731.507	-0.0082
731.825	-0.0051
732.143	-0.0038
732.461	-0.0041
732.779	-0.0062
733.097	-0.0079
733.415	-0.0074
733.733	-0.0097
734.051	-0.0095
734.369	-0.0086
734.687	-0.0088
735.005	-0.0065
735.322	-0.0048
735.64	0.0002
735.957	0.0015
736.275	-0.0027
736.592	-0.0073
736.91	-0.0132
737.227	-0.0115
737.544	-0.0041
737.862	0.0022
738.179	-0
738.496	-0.0026
738.813	-0.007
739.13	-0.0063
739.447	-0.0103
739.764	-0.0095
740.081	-0.0105
740.398	-0.0094
740.714	-0.0124
741.031	-0.0124
741.348	-0.0123
741.664	-0.0082
741.981	-0.0034
742.297	-0.0016
742.614	-0.0003
742.93	-0.0036
743.246	-0.0076
743.563	-0.0152
743.879	-0.0186
744.195	-0.0157
744.511	-0.0104
744.827	-0.0032
745.143	-0.0003
745.459	-0.0021
745.775	-0.0056
746.091	-0.0133
746.406	-0.0158
746.722	-0.0127
747.038	-0.0043
747.353	0.0002
747.669	-0.0087
747.984	-0.0146
748.3	-0.0133
748.615	-0.0064
748.93	-0.0016
749.246	-0.0057
749.561	-0.0091
749.876	-0.016
750.191	-0.0149
750.506	-0.0073
750.821	-0.0023
751.136	-0.0048
751.451	-0.0075
751.766	-0.0041
752.08	-0.0052
752.395	-0.0071
752.71	-0.0129
753.024	-0.0096
753.339	-0.0067
753.653	-0.0105
753.968	-0.0113
754.282	-0.0113
754.596	-0.0085
754.911	-0.0082
755.225	-0.0112
755.539	-0.008
755.853	-0.0054
756.167	-0.0044
756.481	-0.0033
756.795	-0.0091
757.109	-0.0099
757.423	-0.0102
757.736	-0.0092
758.05	-0.01
758.364	-0.0112
758.677	-0.0084
758.991	-0.009
759.304	-0.007
759.618	-0.006
759.931	-0.0086
760.244	-0.0075
760.558	-0.0087
760.871	-0.0059
761.184	-0.0099
761.497	-0.0111
761.81	-0.0117
762.123	-0.0079
762.436	-0.0049
762.749	0.0005
763.062	-0.0037
763.374	-0.0099
763.687	-0.0165
764	-0.013
764.312	-0.0102
764.625	-0.0107
764.937	-0.0112
765.25	-0.0134
765.562	-0.0124
765.874	-0.0135
766.186	-0.0106
766.499	-0.0082
766.811	-0.0081
767.123	-0.0068
767.435	-0.0079
767.747	-0.0094
768.059	-0.0095
768.37	-0.0053
768.682	-0.0061
768.994	-0.0072
769.306	-0.0092
769.617	-0.0081
769.929	-0.0077
770.24	-0.0091
770.552	-0.0069
770.863	-0.0084
771.174	-0.0107
771.486	-0.0108
771.797	-0.0111
772.108	-0.0103
772.419	-0.01
772.73	-0.0075
773.041	-0.01
773.352	-0.0125
773.663	-0.0159
773.974	-0.0146
774.285	-0.0177
774.595	-0.0183
774.906	-0.016
775.217	-0.0109
775.527	-0.0074
775.838	-0.0064
776.148	-0.0048
776.458	-0.0032
776.769	-0.0079
777.079	-0.0077
777.389	-0.0117
777.699	-0.0094
778.009	-0.0096
778.319	-0.0037
778.629	-0.0033
778.939	-0.0049
779.249	-0.0094
779.559	-0.0076
779.869	-0.0095
780.178	-0.0101
780.488	-0.0132
780.798	-0.0115
781.107	-0.0097
781.417	-0.0073
781.726	-0.0056
782.035	-0.0063
782.345	-0.0093
782.654	-0.0094
782.963	-0.0111
783.272	-0.0101
783.581	-0.0102
783.89	-0.015
784.199	-0.0134
784.508	-0.013
784.817	-0.0052
785.126	-0.0083
785.434	-0.0092
785.743	-0.0138
786.052	-0.0073
786.36	-0.0088
786.669	-0.0088
786.977	-0.0136
787.285	-0.0118
787.594	-0.0131
787.902	-0.0124
788.21	-0.0128
788.518	-0.0076
788.826	-0.0025
789.135	-0.0028
789.442	-0.0031
789.75	-0.0089
790.058	-0.0037
790.366	-0.0092
790.674	-0.0087
790.981	-0.0159
791.289	-0.0116
791.597	-0.0088
791.904	-0.0101
792.212	-0.0114
792.519	-0.015
792.826	-0.0133
793.134	-0.0103
793.441	-0.0128
793.748	-0.0126
794.055	-0.0123
794.362	-0.0103
794.669	-0.0123
794.976	-0.014
795.283	-0.0098
795.59	-0.0002
795.897	-0.0013
796.203	0.0015
796.51	-0.0014
796.817	-0.0059
797.123	-0.0099
797.43	-0.0139
797.736	-0.0087
798.042	-0.0077
798.349	-0.0068
798.655	-0.0076
798.961	-0.0114
799.267	-0.006
799.573	-0.0121
799.879	-0.0048
800.185	-0.0066
800.491	0.0014
800.797	-0.0074
801.103	-0.012
801.408	-0.0182
801.714	-0.0139
802.02	-0.0095
802.325	-0.0054
802.631	-0.0031
802.936	-0.0092
803.242	-0.0161
803.547	-0.0171
803.852	-0.0156
804.157	-0.0099
804.462	-0.0039
804.768	0.0045
805.073	0.0094
805.378	-0.0011
805.682	-0.0114
805.987	-0.0202
806.292	-0.0149
806.597	-0.007
806.902	-0.0018
807.206	-0.0034
807.511	-0.0079
807.815	-0.0046
808.12	0.0008
808.424	0.0082
808.728	0.0014
809.033	-0.0019
809.337	-0.0028
809.641	-0.0041
809.945	-0.0111
810.249	-0.0175
810.553	-0.0084
810.857	-0.0004
811.161	0.0028
811.465	-0.0031
811.768	-0.0141
812.072	-0.0177
812.376	-0.0243
812.679	-0.017
812.983	-0.0162
813.286	-0.0123
813.59	-0.0121
813.893	-0.0137
814.196	-0.0073
814.499	-0.0108
814.803	-0.0116
815.106	-0.0132
815.409	-0.0102
815.712	-0.0043
816.015	-0.0026
816.318	-0.0048
816.62	-0.0047
816.923	-0.0092
817.226	-0.0057
817.528	-0.0132
817.831	-0.0142
818.133	-0.021
818.436	-0.0155
818.738	-0.0116
819.041	-0.0069
819.343	-0.0043
819.645	-0.0084
819.947	-0.0022
820.249	-0.0039
820.551	0.0022
820.853	-0.0014
821.155	-0.0122
821.457	-0.0197
821.759	-0.0198
822.061	-0.0084
822.362	-0.0081
822.664	-0.0053
822.966	-0.0091
823.267	-0.0103
823.569	-0.0118
823.87	-0.0122
824.171	-0.0126
824.473	-0.0189
824.774	-0.023
825.075	-0.0186
825.376	-0.0203
825.677	-0.0183
825.978	-0.0182
826.279	-0.0059
826.58	-0.0048
826.881	-0.01
827.181	-0.0196
827.482	-0.0109
827.783	-0.0034
828.083	-0.0008
828.384	-0.0104
828.684	-0.0113
828.985	-0.013
829.285	-0.0106
829.585	-0.0175
829.885	-0.013
830.185	-0.014
830.486	-0.0043
830.786	-0.0051
831.086	-0.0108
831.385	-0.0172
831.685	-0.021
831.985	-0.0127
832.285	-0.0094
832.585	-0.0015
832.884	-0.0028
833.184	-0.0059
833.483	-0.0109
833.783	-0.012
834.082	-0.0126
834.381	-0.0092
834.681	-0.0071
834.98	-0.0048
835.279	-0.0083
835.578	-0.0116
835.877	-0.0131
836.176	-0.0179
836.475	-0.0044
836.774	-0.0124
837.072	-0.0132
837.371	-0.025
837.67	-0.0198
837.968	-0.0242
838.267	-0.0229
838.565	-0.0239
838.864	-0.0071
839.162	-0.0098
839.46	-0.0035
839.759	-0.0108
840.057	-0.0123
840.355	-0.0094
840.653	-0.0015
840.951	-0.0018
841.249	0.0013
841.547	-0.0057
841.845	0.0002
842.142	-0.0173
842.44	-0.0264
842.738	-0.0305
843.035	-0.0227
843.333	-0.0149
843.63	-0.014
843.928	-0.0096
844.225	-0.0069
844.522	-0.0026
844.82	-0.012
845.117	-0.0167
845.414	-0.0193
845.711	-0.0218
846.008	-0.0221
846.305	-0.0231
846.602	-0.0125
846.898	-0.0028
847.195	-0.0164
847.492	-0.0133
847.788	-0.0217
848.085	-0.0072
848.382	-0.0148
848.678	-0.0197
848.974	-0.0174
849.271	-0.0109
849.567	-0.0049
849.863	-0.0069
850.159	-0.0057
850.455	-0.0115
850.751	0.0032
851.047	-0.0123
851.343	-0.0161
851.639	-0.036
851.935	-0.0281
852.23	-0.0186
852.526	-0.0166
852.822	-0.0067
853.117	0.0018
853.413	-0.0045
853.708	-0.0167
854.003	-0.0299
854.299	-0.0027
854.594	-0.0114
854.889	-0.0181
855.184	-0.0352
855.479	-0.0179
855.774	-0.0301
856.069	-0.0205
856.364	-0.0305
856.659	-0.0118
856.954	-0.0249
857.248	-0.0157
857.543	-0.0104
857.837	-0.0069
858.132	-0.0032
858.426	-0.0022
858.721	0.0029
859.015	0.0005
859.309	-0.0031
859.604	-0.0098
859.898	-0.0134
860.192	-0.0087
860.486	0.0043
860.78	0.0126
861.074	0.0053
861.367	-0.0094
861.661	-0.0208
861.955	-0.017
862.248	-0.0085
862.542	-0.0049
862.836	-0.0072
863.129	0.0034
863.422	0.0052
863.716	0.015
864.009	0.0058
864.302	-0.0002
864.595	-0.0134
864.889	-0.0111
865.182	-0.0251
865.475	-0.0275
865.767	-0.049
866.06	-0.0318
866.353	-0.0241
866.646	-0.0127
866.938	-0.0036
867.231	0.0109
867.524	0.0105
867.816	0.003
868.109	-0.0157
868.401	-0.0087
868.693	0.0106
868.985	0.0186
869.278	0.0254
869.57	0.0028
869.862	-0.012
870.154	-0.0313
870.446	-0.0338
870.738	-0.0485
871.029	-0.045
871.321	-0.054
871.613	-0.0301
871.904	-0.017
872.196	-0.003
872.487	-0.0142
872.779	-0.0138
873.07	-0.0087
873.362	-0.0051
873.653	-0.0263
873.944	-0.0198
874.235	-0.0236
874.526	-0.0043
874.817	0.003
875.108	-0.0029
875.399	0.007
875.69	-0.0156
875.981	-0.0198
876.271	-0.0169
876.562	-0.0178
876.853	0.0096
877.143	-0.035
877.434	-0.0451
877.724	-0.0464
878.014	-0.0275
878.305	-0.0033
878.595	-0.0254
878.885	-0.0167
879.175	-0.0277
879.465	-0.0077
879.755	-0.0026
880.045	-0.0081
880.335	-0.0209
880.624	-0.0297
880.914	-0.0297
