Data from 1SS02BU_080317_1b_Absorbance_15-57-13-793.txt Node
Date: Sun Aug 06 15:57:13 MDT 2017
User: Tank Lab
Spectrometer: FLMS01220
Trigger mode: 0
Integration Time (sec): 1.000000E-1
Scans to average: 10
Electric dark correction enabled: true
Nonlinearity correction enabled: false
Boxcar width: 1
XAxis mode: Wavelengths
Number of Pixels in Spectrum: 2048
>>>>>Begin Spectral Data<<<<<
179.47	-0.0009
179.856	-0.0009
180.241	0.1399
180.626	0.3153
181.011	-0
181.396	0.4489
181.781	-0.5227
182.166	-0.1337
182.551	-0.3926
182.936	-0.038
183.321	-0.023
183.706	-0.7178
184.091	-0.4157
184.476	-0.3253
184.86	0.0896
185.245	-0.9912
185.63	-0
186.015	0.1969
186.399	-0.1575
186.784	-0.6142
187.169	0.6737
187.553	0.1637
187.938	-0
188.322	-0.0023
188.707	0.0108
189.091	0.0552
189.475	0.058
189.86	0.0704
190.244	0.09
190.629	0.1115
191.013	0.1745
191.397	0.1666
191.781	0.1863
192.165	0.1668
192.55	0.1638
192.934	0.1778
193.318	0.191
193.702	0.2083
194.086	0.2028
194.47	0.2037
194.854	0.1997
195.238	0.2016
195.622	0.2101
196.006	0.2217
196.389	0.2256
196.773	0.2298
197.157	0.2178
197.541	0.2163
197.924	0.2096
198.308	0.2112
198.692	0.2043
199.075	0.1981
199.459	0.1998
199.843	0.2026
200.226	0.2034
200.61	0.2004
200.993	0.1904
201.376	0.189
201.76	0.1844
202.143	0.189
202.527	0.1879
202.91	0.1896
203.293	0.1905
203.676	0.1913
204.059	0.1901
204.443	0.1853
204.826	0.1819
205.209	0.1804
205.592	0.1823
205.975	0.1839
206.358	0.1811
206.741	0.1787
207.124	0.1751
207.507	0.1781
207.89	0.1766
208.273	0.1793
208.655	0.176
209.038	0.1774
209.421	0.1758
209.804	0.1751
210.186	0.1738
210.569	0.1714
210.951	0.1723
211.334	0.1732
211.717	0.1732
212.099	0.1723
212.482	0.1721
212.864	0.1736
213.246	0.1738
213.629	0.1701
214.011	0.1684
214.393	0.1653
214.776	0.1642
215.158	0.1626
215.54	0.1638
215.922	0.1659
216.305	0.1649
216.687	0.163
217.069	0.1604
217.451	0.1619
217.833	0.1614
218.215	0.161
218.597	0.1551
218.979	0.156
219.361	0.1536
219.742	0.1573
220.124	0.1539
220.506	0.1556
220.888	0.1541
221.27	0.1541
221.651	0.1537
222.033	0.1513
222.415	0.1502
222.796	0.1479
223.178	0.1493
223.559	0.1487
223.941	0.1492
224.322	0.1496
224.704	0.1489
225.085	0.1488
225.466	0.1452
225.848	0.1446
226.229	0.143
226.61	0.143
226.992	0.1423
227.373	0.1428
227.754	0.143
228.135	0.1449
228.516	0.1436
228.897	0.1444
229.278	0.1416
229.659	0.1422
230.04	0.1412
230.421	0.141
230.802	0.1403
231.183	0.1381
231.564	0.138
231.944	0.1368
232.325	0.1363
232.706	0.1344
233.087	0.1325
233.467	0.1332
233.848	0.1337
234.229	0.1341
234.609	0.1331
234.99	0.1331
235.37	0.1325
235.751	0.1328
236.131	0.1306
236.511	0.129
236.892	0.1276
237.272	0.128
237.652	0.127
238.033	0.1259
238.413	0.125
238.793	0.1266
239.173	0.1268
239.553	0.1253
239.933	0.1233
240.313	0.1219
240.694	0.1211
241.074	0.1223
241.453	0.1214
241.833	0.1213
242.213	0.1186
242.593	0.1185
242.973	0.1177
243.353	0.1163
243.732	0.1162
244.112	0.1152
244.492	0.1157
244.872	0.1144
245.251	0.1152
245.631	0.1145
246.01	0.1149
246.39	0.1147
246.769	0.1146
247.149	0.1138
247.528	0.1124
247.908	0.1121
248.287	0.1122
248.666	0.1118
249.045	0.1117
249.425	0.1113
249.804	0.1113
250.183	0.1095
250.562	0.108
250.941	0.1077
251.32	0.1073
251.699	0.1081
252.078	0.1083
252.457	0.1082
252.836	0.108
253.215	0.1078
253.594	0.1084
253.973	0.1085
254.352	0.1067
254.731	0.1046
255.109	0.103
255.488	0.104
255.867	0.1063
256.245	0.1047
256.624	0.105
257.002	0.1047
257.381	0.1052
257.759	0.1034
258.138	0.1017
258.516	0.1014
258.895	0.1007
259.273	0.1014
259.651	0.1023
260.03	0.1026
260.408	0.1015
260.786	0.1011
261.164	0.1012
261.542	0.1007
261.921	0.0986
262.299	0.0975
262.677	0.0976
263.055	0.0975
263.433	0.0983
263.811	0.098
264.188	0.1001
264.566	0.0997
264.944	0.0982
265.322	0.0964
265.7	0.0949
266.077	0.0955
266.455	0.0953
266.833	0.0969
267.21	0.0966
267.588	0.0957
267.966	0.0935
268.343	0.0923
268.721	0.0916
269.098	0.0916
269.475	0.093
269.853	0.0933
270.23	0.0928
270.607	0.0913
270.985	0.0901
271.362	0.0899
271.739	0.0894
272.116	0.0889
272.494	0.0879
272.871	0.0871
273.248	0.0859
273.625	0.0856
274.002	0.0853
274.379	0.0863
274.756	0.0856
275.132	0.0856
275.509	0.0858
275.886	0.0866
276.263	0.0872
276.64	0.0858
277.016	0.0843
277.393	0.0828
277.77	0.0814
278.146	0.0819
278.523	0.0808
278.899	0.0802
279.276	0.0786
279.652	0.08
280.029	0.0804
280.405	0.0792
280.782	0.0763
281.158	0.0763
281.534	0.0767
281.91	0.0772
282.287	0.0761
282.663	0.0767
283.039	0.0768
283.415	0.077
283.791	0.0764
284.167	0.0759
284.543	0.0755
284.919	0.074
285.295	0.0731
285.671	0.0722
286.047	0.0718
286.423	0.0716
286.799	0.0719
287.174	0.0717
287.55	0.0713
287.926	0.0706
288.301	0.0709
288.677	0.0714
289.053	0.0708
289.428	0.069
289.804	0.0676
290.179	0.0669
290.555	0.0675
290.93	0.0679
291.305	0.0682
291.681	0.0679
292.056	0.068
292.431	0.0681
292.806	0.0678
293.182	0.0654
293.557	0.0638
293.932	0.0632
294.307	0.0658
294.682	0.065
295.057	0.0653
295.432	0.0625
295.807	0.0639
296.182	0.0627
296.557	0.0624
296.932	0.0609
297.306	0.0622
297.681	0.0617
298.056	0.0616
298.43	0.061
298.805	0.0615
299.18	0.0612
299.554	0.0598
299.929	0.059
300.303	0.0599
300.678	0.0597
301.052	0.0613
301.427	0.0607
301.801	0.0608
302.175	0.0586
302.55	0.0575
302.924	0.0569
303.298	0.0578
303.672	0.0579
304.046	0.0576
304.421	0.0564
304.795	0.0557
305.169	0.0554
305.543	0.055
305.917	0.0546
306.291	0.0543
306.664	0.0547
307.038	0.0536
307.412	0.0541
307.786	0.0544
308.16	0.0549
308.533	0.054
308.907	0.0524
309.281	0.0535
309.654	0.0532
310.028	0.0538
310.401	0.0507
310.775	0.051
311.148	0.0486
311.522	0.0505
311.895	0.0491
312.268	0.0506
312.642	0.0487
313.015	0.0485
313.388	0.048
313.761	0.0488
314.135	0.0486
314.508	0.0488
314.881	0.0493
315.254	0.0492
315.627	0.049
316	0.0481
316.373	0.0473
316.746	0.0471
317.118	0.0465
317.491	0.047
317.864	0.046
318.237	0.046
318.61	0.0467
318.982	0.0473
319.355	0.0473
319.727	0.0465
320.1	0.0449
320.473	0.043
320.845	0.0417
321.218	0.0426
321.59	0.045
321.962	0.0453
322.335	0.0453
322.707	0.0441
323.079	0.045
323.452	0.044
323.824	0.0444
324.196	0.0446
324.568	0.045
324.94	0.0435
325.312	0.0427
325.684	0.0414
326.056	0.0397
326.428	0.0383
326.8	0.0376
327.172	0.0375
327.544	0.037
327.915	0.0395
328.287	0.0408
328.659	0.0409
329.031	0.0394
329.402	0.0395
329.774	0.0393
330.145	0.0393
330.517	0.038
330.888	0.0355
331.26	0.036
331.631	0.0361
332.003	0.0388
332.374	0.0368
332.745	0.0373
333.117	0.0343
333.488	0.0341
333.859	0.0338
334.23	0.0345
334.601	0.036
334.972	0.0352
335.343	0.0355
335.714	0.0328
336.085	0.0332
336.456	0.0333
336.827	0.0356
337.198	0.0355
337.569	0.0361
337.94	0.0352
338.31	0.0345
338.681	0.0336
339.052	0.032
339.422	0.0308
339.793	0.0292
340.164	0.0292
340.534	0.0292
340.905	0.0299
341.275	0.0305
341.645	0.031
342.016	0.0305
342.386	0.0298
342.756	0.0298
343.127	0.0305
343.497	0.0297
343.867	0.0287
344.237	0.0281
344.607	0.029
344.977	0.0292
345.347	0.0295
345.717	0.0283
346.087	0.0273
346.457	0.0258
346.827	0.0257
347.197	0.0254
347.567	0.0264
347.936	0.0261
348.306	0.0275
348.676	0.0272
349.046	0.026
349.415	0.0269
349.785	0.0259
350.154	0.0272
350.524	0.0264
350.893	0.0278
351.263	0.0286
351.632	0.0301
352.001	0.0274
352.371	0.0282
352.74	0.0257
353.109	0.0281
353.478	0.0279
353.847	0.0287
354.217	0.0293
354.586	0.0273
354.955	0.0262
355.324	0.0232
355.693	0.0225
356.062	0.0243
356.43	0.0236
356.799	0.0224
357.168	0.0189
357.537	0.0198
357.906	0.0218
358.274	0.0248
358.643	0.0242
359.011	0.0242
359.38	0.0234
359.749	0.0245
360.117	0.0225
360.486	0.0204
360.854	0.0198
361.222	0.0192
361.591	0.0192
361.959	0.0191
362.327	0.021
362.695	0.0225
363.064	0.022
363.432	0.0205
363.8	0.0205
364.168	0.0187
364.536	0.021
364.904	0.0199
365.272	0.0203
365.64	0.0198
366.008	0.0192
366.376	0.0188
366.743	0.0172
367.111	0.0183
367.479	0.0214
367.847	0.0223
368.214	0.0217
368.582	0.0189
368.949	0.0174
369.317	0.0176
369.684	0.0172
370.052	0.0189
370.419	0.0181
370.787	0.021
371.154	0.0182
371.521	0.0186
371.889	0.016
372.256	0.0175
372.623	0.0155
372.99	0.0164
373.357	0.0155
373.724	0.0144
374.091	0.0133
374.458	0.0147
374.825	0.0185
375.192	0.0181
375.559	0.0159
375.926	0.0143
376.293	0.0149
376.659	0.0162
377.026	0.0163
377.393	0.0187
377.759	0.0183
378.126	0.0178
378.492	0.0152
378.859	0.0137
379.225	0.0144
379.592	0.0136
379.958	0.0145
380.325	0.0126
380.691	0.0135
381.057	0.0117
381.423	0.0129
381.79	0.0113
382.156	0.0134
382.522	0.0132
382.888	0.0152
383.254	0.0152
383.62	0.0152
383.986	0.0137
384.352	0.0142
384.718	0.0139
385.084	0.0142
385.449	0.0129
385.815	0.0117
386.181	0.0116
386.547	0.0108
386.912	0.0114
387.278	0.0116
387.643	0.0115
388.009	0.0118
388.374	0.011
388.74	0.0131
389.105	0.0136
389.471	0.0164
389.836	0.0148
390.201	0.0153
390.566	0.014
390.932	0.0145
391.297	0.0126
391.662	0.0099
392.027	0.0086
392.392	0.0066
392.757	0.0065
393.122	0.0077
393.487	0.0105
393.852	0.0112
394.217	0.0113
394.582	0.0096
394.946	0.012
395.311	0.0125
395.676	0.0126
396.04	0.0093
396.405	0.0079
396.77	0.0093
397.134	0.0111
397.499	0.0106
397.863	0.0097
398.227	0.0098
398.592	0.0103
398.956	0.0114
399.32	0.0123
399.685	0.0115
400.049	0.0103
400.413	0.0083
400.777	0.0088
401.141	0.0084
401.505	0.0094
401.869	0.0092
402.233	0.0092
402.597	0.0081
402.961	0.0078
403.325	0.0075
403.689	0.0078
404.053	0.0091
404.416	0.0086
404.78	0.0089
405.144	0.0083
405.507	0.0069
405.871	0.0051
406.234	0.0035
406.598	0.0067
406.961	0.0088
407.325	0.0089
407.688	0.0074
408.051	0.0074
408.415	0.0086
408.778	0.0096
409.141	0.0081
409.504	0.0081
409.867	0.0077
410.23	0.0088
410.593	0.0083
410.956	0.0066
411.319	0.0059
411.682	0.0048
412.045	0.0065
412.408	0.0073
412.771	0.0089
413.134	0.0086
413.496	0.008
413.859	0.0054
414.222	0.0055
414.584	0.0061
414.947	0.0092
415.309	0.0064
415.672	0.0054
416.034	0.0067
416.396	0.0069
416.759	0.0091
417.121	0.0072
417.483	0.0098
417.846	0.008
418.208	0.0088
418.57	0.0069
418.932	0.0038
419.294	0.0025
419.656	0.0042
420.018	0.0058
420.38	0.0069
420.742	0.0055
421.104	0.0053
421.466	0.0043
421.827	0.007
422.189	0.0076
422.551	0.0086
422.912	0.006
423.274	0.0052
423.636	0.0026
423.997	-0.0002
424.359	0.002
424.72	0.0034
425.081	0.0039
425.443	0.0036
425.804	0.0047
426.165	0.0071
426.527	0.0067
426.888	0.0059
427.249	0.0069
427.61	0.0061
427.971	0.0055
428.332	0.003
428.693	0.0049
429.054	0.005
429.415	0.0053
429.776	0.0035
430.137	0.0021
430.498	0.0029
430.858	0.0011
431.219	0.0024
431.58	0.0033
431.94	0.0063
432.301	0.0057
432.661	0.0056
433.022	0.0039
433.382	0.0021
433.743	0.0005
434.103	0.0021
434.463	0.0051
434.824	0.0059
435.184	0.0034
435.544	0.003
435.904	0.0051
436.264	0.0076
436.624	0.0066
436.985	0.0063
437.345	0.0067
437.704	0.0071
438.064	0.0072
438.424	0.0062
438.784	0.0058
439.144	0.0049
439.504	0.0047
439.863	0.0059
440.223	0.006
440.583	0.0031
440.942	0.0008
441.302	0.0004
441.661	0.0032
442.021	0.0035
442.38	0.0039
442.739	0.002
443.099	0.0041
443.458	0.0037
443.817	0.0033
444.176	0.0024
444.536	0.0011
444.895	0.0019
445.254	0.0031
445.613	0.0044
445.972	0.0052
446.331	0.0042
446.69	0.0014
447.049	0.0015
447.407	-0.0004
447.766	0.0036
448.125	0.0059
448.484	0.0069
448.842	0.0044
449.201	0.0016
449.559	0.0017
449.918	0.0034
450.276	0.004
450.635	0.003
450.993	-0.0003
451.352	-0.0017
451.71	-0.0002
452.068	0.0028
452.426	0.0045
452.785	0.0025
453.143	0.001
453.501	0.0004
453.859	0.0019
454.217	0.0029
454.575	0.0024
454.933	0.0023
455.291	0.0007
455.649	0.0003
456.006	0.0016
456.364	0.0018
456.722	0.0029
457.079	-0.0005
457.437	0.0011
457.795	0.0008
458.152	0.0043
458.51	0.0029
458.867	0.0038
459.225	0.0001
459.582	0.0003
459.939	0.0014
460.297	0.0016
460.654	-0.0003
461.011	-0.0045
461.368	-0.002
461.725	-0.0007
462.082	0.0021
462.44	0.0037
462.797	0.0033
463.153	0.0017
463.51	-0.0002
463.867	0.0016
464.224	0.0021
464.581	0.0017
464.938	0.0007
465.294	-0.0008
465.651	-0.0003
466.008	-0.001
466.364	0.0004
466.721	-0.0004
467.077	0.0006
467.434	0.0002
467.79	0.0018
468.146	0.0014
468.503	0.0018
468.859	-0.0002
469.215	0.0018
469.571	0.0046
469.927	0.0073
470.284	0.0054
470.64	0.0011
470.996	-0.0005
471.352	-0.0017
471.707	-0.0016
472.063	-0.0019
472.419	-0.0011
472.775	0.0006
473.131	0.0007
473.486	0.0031
473.842	0.0051
474.198	0.0047
474.553	0.0055
474.909	0.0019
475.264	0.0017
475.62	0.0019
475.975	0.0031
476.331	0.0041
476.686	-0.0003
477.041	-0.0016
477.396	-0.002
477.752	-0.0006
478.107	-0.0003
478.462	-0.0003
478.817	0.0012
479.172	0.0023
479.527	0.0031
479.882	0
480.237	-0.0001
480.591	-0.0022
480.946	0.0005
481.301	0.0006
481.656	0.0011
482.01	-0.0001
482.365	-0.0004
482.72	0.0014
483.074	0.001
483.429	-0.0011
483.783	-0.0016
484.137	-0.0022
484.492	-0.002
484.846	-0.0033
485.2	-0.0032
485.555	-0.0005
485.909	0.0009
486.263	0.0012
486.617	-0.0003
486.971	-0.0024
487.325	-0.0014
487.679	-0.002
488.033	-0.0013
488.387	-0.0032
488.741	-0.0035
489.094	-0.0017
489.448	0.0001
489.802	0.0016
490.156	-0.0006
490.509	-0.0001
490.863	0.0002
491.216	0.0016
491.57	-0.0006
491.923	-0.0007
492.277	-0.0027
492.63	-0.0018
492.983	-0.0022
493.337	-0.0008
493.69	0.0007
494.043	-0.0007
494.396	-0.0005
494.749	-0.0022
495.102	0.0011
495.455	0.0019
495.808	0.0004
496.161	-0.0029
496.514	-0.0044
496.867	-0.0009
497.22	0.0006
497.572	0.0005
497.925	-0.0008
498.278	-0.0013
498.63	-0.0017
498.983	-0.0016
499.335	-0.0001
499.688	0.0014
500.04	0.0006
500.393	-0.0008
500.745	-0.0028
501.097	-0.0037
501.449	-0.0047
501.802	-0.0029
502.154	-0.002
502.506	-0.0011
502.858	-0.0033
503.21	-0.0025
503.562	-0.0017
503.914	0.0013
504.266	0.0004
504.618	0.0009
504.969	-0.0002
505.321	-0.0005
505.673	-0.0039
506.025	-0.0038
506.376	-0.003
506.728	-0.0028
507.079	-0.0042
507.431	-0.0045
507.782	-0.0023
508.134	-0.0012
508.485	-0.0004
508.836	-0.0001
509.188	0.0002
509.539	0.0006
509.89	-0.0021
510.241	-0.0021
510.592	-0.0038
510.943	-0.0021
511.294	-0.0012
511.645	-0.0011
511.996	0.0002
512.347	-0.0029
512.698	-0.0021
513.049	-0.0051
513.399	-0.0048
513.75	-0.0063
514.101	-0.0047
514.451	-0.0032
514.802	-0.0026
515.152	-0.0013
515.503	-0.0021
515.853	-0.0013
516.203	-0.0032
516.554	-0.0035
516.904	-0.0047
517.254	-0.0028
517.604	-0.0022
517.955	-0.0014
518.305	-0.0028
518.655	-0.0019
519.005	-0.0045
519.355	-0.0052
519.705	-0.0077
520.055	-0.0051
520.404	-0.0063
520.754	-0.0043
521.104	-0.0043
521.454	-0.0001
521.803	0
522.153	-0.0007
522.502	-0.0037
522.852	-0.0045
523.201	-0.0049
523.551	-0.0053
523.9	-0.0033
524.249	-0.002
524.599	-0.0029
524.948	-0.0053
525.297	-0.0061
525.646	-0.0057
525.995	-0.0052
526.344	-0.0053
526.694	-0.0032
527.042	-0.0041
527.391	-0.0064
527.74	-0.0075
528.089	-0.0089
528.438	-0.0056
528.787	-0.004
529.135	-0.0014
529.484	-0.0013
529.833	-0.0052
530.181	-0.0052
530.53	-0.0067
530.878	-0.0032
531.227	-0.0036
531.575	-0.0031
531.923	-0.0032
532.271	-0.0038
532.62	-0.0038
532.968	-0.0034
533.316	-0.0028
533.664	-0.0014
534.012	-0.0026
534.36	-0.0019
534.708	-0.003
535.056	-0.0008
535.404	0.0019
535.752	0.0033
536.1	0.0017
536.447	-0.0013
536.795	-0.0014
537.143	-0.0016
537.49	-0.0007
537.838	-0.0038
538.185	-0.0041
538.533	-0.0046
538.88	-0.0022
539.228	-0.0024
539.575	-0.0036
539.922	-0.005
540.269	-0.0029
540.617	-0.002
540.964	-0.0001
541.311	-0.0018
541.658	-0.0029
542.005	-0.0048
542.352	-0.0048
542.699	-0.0041
543.045	-0.0032
543.392	-0.0032
543.739	-0.0032
544.086	-0.0046
544.432	-0.0024
544.779	-0.0028
545.126	-0.0016
545.472	-0.0004
545.819	0.002
546.165	0.0025
546.512	-0.0024
546.858	-0.0042
547.204	-0.0067
547.55	-0.0058
547.897	-0.0035
548.243	-0.0039
548.589	-0.0012
548.935	-0.0045
549.281	-0.002
549.627	-0.0035
549.973	-0.0046
550.319	-0.0053
550.665	-0.0046
551.01	-0.0036
551.356	-0.0017
551.702	-0.0047
552.048	-0.0016
552.393	-0.0035
552.739	-0.0032
553.084	-0.0055
553.43	-0.0067
553.775	-0.0016
554.12	-0.0016
554.466	0.0001
554.811	-0.0035
555.156	-0.0023
555.502	-0.0041
555.847	-0.0026
556.192	-0.0038
556.537	-0.0014
556.882	-0.0032
557.227	-0.0054
557.572	-0.0064
557.917	-0.006
558.261	-0.0032
558.606	-0.002
558.951	-0.0025
559.295	-0.0034
559.64	-0.007
559.985	-0.0102
560.329	-0.0093
560.674	-0.006
561.018	-0.0028
561.363	-0.0058
561.707	-0.0076
562.051	-0.0083
562.395	-0.0068
562.74	-0.0038
563.084	-0.004
563.428	-0.0046
563.772	-0.0052
564.116	-0.0044
564.46	-0.0006
564.804	-0.0013
565.148	-0.0017
565.492	-0.0031
565.835	-0.0019
566.179	0.0004
566.523	-0.0026
566.866	-0.0056
567.21	-0.0093
567.554	-0.0112
567.897	-0.0071
568.24	-0.0051
568.584	-0.0034
568.927	-0.0037
569.271	-0.0032
569.614	-0.004
569.957	-0.0039
570.3	-0.0047
570.643	-0.0031
570.986	-0.0052
571.329	-0.0074
571.672	-0.0055
572.015	-0.0049
572.358	-0.0018
572.701	-0.0064
573.044	-0.0075
573.387	-0.0076
573.729	-0.0048
574.072	-0.0054
574.414	-0.0057
574.757	-0.0056
575.099	-0.0046
575.442	-0.0045
575.784	-0.0042
576.127	-0.0035
576.469	-0.0039
576.811	-0.0044
577.153	-0.0046
577.496	-0.0042
577.838	-0.0038
578.18	-0.0048
578.522	-0.005
578.864	-0.0075
579.206	-0.0069
579.548	-0.0074
579.889	-0.0057
580.231	-0.0043
580.573	-0.0037
580.915	-0.0043
581.256	-0.0066
581.598	-0.0073
581.939	-0.0064
582.281	-0.0042
582.622	-0.0046
582.964	-0.0042
583.305	-0.0042
583.646	-0.004
583.988	-0.0038
584.329	-0.0049
584.67	-0.0046
585.011	-0.0062
585.352	-0.0059
585.693	-0.0037
586.034	-0.0032
586.375	-0.0046
586.716	-0.0084
587.057	-0.0062
587.398	-0.0007
587.738	-0.0014
588.079	-0.0016
588.42	-0.0039
588.76	-0.0041
589.101	-0.0059
589.441	-0.0044
589.782	-0.005
590.122	-0.0047
590.463	-0.0087
590.803	-0.007
591.143	-0.0082
591.483	-0.0073
591.823	-0.0065
592.164	-0.0064
592.504	-0.0062
592.844	-0.0067
593.184	-0.0044
593.523	-0.0052
593.863	-0.0072
594.203	-0.007
594.543	-0.0047
594.883	-0.0059
595.222	-0.0063
595.562	-0.0076
595.901	-0.007
596.241	-0.0071
596.58	-0.006
596.92	-0.0044
597.259	-0.0032
597.599	-0.0051
597.938	-0.0063
598.277	-0.009
598.616	-0.0076
598.955	-0.0077
599.295	-0.0057
599.634	-0.0057
599.973	-0.0056
600.312	-0.0075
600.65	-0.0095
600.989	-0.0086
601.328	-0.0061
601.667	-0.0049
602.005	-0.0072
602.344	-0.0075
602.683	-0.0058
603.021	-0.0055
603.36	-0.0055
603.698	-0.0064
604.037	-0.005
604.375	-0.0045
604.713	-0.0046
605.052	-0.0036
605.39	-0.0046
605.728	-0.0046
606.066	-0.0062
606.404	-0.007
606.742	-0.0085
607.08	-0.0066
607.418	-0.0077
607.756	-0.0073
608.094	-0.008
608.431	-0.0079
608.769	-0.0057
609.107	-0.0063
609.444	-0.0052
609.782	-0.0061
610.12	-0.0067
610.457	-0.0072
610.794	-0.0071
611.132	-0.0075
611.469	-0.0074
611.806	-0.0088
612.144	-0.0093
612.481	-0.0075
612.818	-0.0067
613.155	-0.0024
613.492	-0.0029
613.829	0.0007
614.166	-0.0052
614.503	-0.006
614.84	-0.0107
615.176	-0.0086
615.513	-0.0072
615.85	-0.0053
616.187	-0.0028
616.523	-0.0041
616.86	-0.0058
617.196	-0.0087
617.533	-0.0082
617.869	-0.0074
618.205	-0.0062
618.542	-0.0051
618.878	-0.0047
619.214	-0.0041
619.55	-0.0051
619.886	-0.0045
620.222	-0.0053
620.558	-0.005
620.894	-0.0055
621.23	-0.0062
621.566	-0.0087
621.902	-0.0113
622.238	-0.0133
622.573	-0.0135
622.909	-0.0109
623.244	-0.011
623.58	-0.0082
623.916	-0.0091
624.251	-0.0085
624.586	-0.0115
624.922	-0.0067
625.257	-0.0069
625.592	-0.0051
625.927	-0.0069
626.263	-0.0056
626.598	-0.0054
626.933	-0.0078
627.268	-0.0069
627.603	-0.0096
627.938	-0.0108
628.272	-0.0127
628.607	-0.0116
628.942	-0.0099
629.277	-0.0105
629.611	-0.0133
629.946	-0.0145
630.281	-0.0134
630.615	-0.0124
630.949	-0.0123
631.284	-0.0091
631.618	-0.0055
631.953	-0.0008
632.287	-0.0056
632.621	-0.0063
632.955	-0.0079
633.289	-0.0069
633.623	-0.0061
633.957	-0.0025
634.291	-0.0028
634.625	-0.0025
634.959	-0.008
635.293	-0.0074
635.627	-0.0076
635.96	-0.0038
636.294	-0.0023
636.627	-0.0024
636.961	-0.0049
637.294	-0.007
637.628	-0.0083
637.961	-0.0089
638.295	-0.0073
638.628	-0.0016
638.961	-0.0046
639.294	-0.0074
639.628	-0.0108
639.961	-0.0111
640.294	-0.0105
640.627	-0.0126
640.96	-0.0103
641.293	-0.011
641.625	-0.011
641.958	-0.0105
642.291	-0.0159
642.624	-0.0115
642.956	-0.0102
643.289	-0.0013
643.621	-0.0058
643.954	-0.0079
644.286	-0.0061
644.619	-0.0042
644.951	-0.0041
645.283	-0.0073
645.616	-0.0095
645.948	-0.0077
646.28	-0.0057
646.612	-0.0073
646.944	-0.0077
647.276	-0.0115
647.608	-0.012
647.94	-0.014
648.272	-0.0109
648.603	-0.0059
648.935	-0.0056
649.267	-0.0051
649.598	-0.01
649.93	-0.0102
650.261	-0.0105
650.593	-0.0092
650.924	-0.0092
651.256	-0.0096
651.587	-0.0095
651.918	-0.008
652.25	-0.0092
652.581	-0.0104
652.912	-0.0123
653.243	-0.0117
653.574	-0.0087
653.905	-0.0051
654.236	-0.0031
654.567	-0.0029
654.897	-0.004
655.228	-0.0051
655.559	-0.0054
655.89	-0.0075
656.22	-0.0052
656.551	-0.0072
656.881	-0.0043
657.212	-0.0091
657.542	-0.0081
657.872	-0.0064
658.203	-0.009
658.533	-0.0052
658.863	-0.005
659.193	-0.0043
659.523	-0.0037
659.853	-0.0039
660.183	-0.0033
660.513	-0.0101
660.843	-0.0119
661.173	-0.0081
661.503	-0.0056
661.833	-0.0073
662.162	-0.0102
662.492	-0.0083
662.822	-0.0094
663.151	-0.011
663.481	-0.0108
663.81	-0.0078
664.139	-0.0038
664.469	-0.0038
664.798	0.0001
665.127	-0.006
665.456	-0.0054
665.785	-0.0086
666.114	-0.0029
666.443	-0.0045
666.772	-0.0072
667.101	-0.0118
667.43	-0.0159
667.759	-0.0103
668.088	-0.0116
668.416	-0.0115
668.745	-0.0145
669.074	-0.0126
669.402	-0.0091
669.731	-0.009
670.059	-0.0073
670.388	-0.005
670.716	-0.0026
671.044	-0.0048
671.372	-0.0065
671.701	-0.0065
672.029	-0.0033
672.357	-0.0076
672.685	-0.0064
673.013	-0.0088
673.341	-0.0058
673.669	-0.0111
673.996	-0.0103
674.324	-0.0058
674.652	-0.0009
674.98	-0.0005
675.307	-0.0029
675.635	-0.0043
675.962	-0.0051
676.29	-0.0058
676.617	-0.0085
676.945	-0.0077
677.272	-0.0087
677.599	-0.0073
677.926	-0.0064
678.253	-0.0054
678.581	-0.0085
678.908	-0.0089
679.235	-0.0087
679.561	-0.0055
679.888	-0.0055
680.215	-0.0049
680.542	-0.0115
680.869	-0.0091
681.195	-0.0087
681.522	-0.0019
681.849	-0.0043
682.175	-0.0105
682.502	-0.0108
682.828	-0.0104
683.154	-0.0054
683.481	-0.006
683.807	-0.0054
684.133	-0.0094
684.459	-0.0182
684.785	-0.0174
685.111	-0.0136
685.437	-0.0084
685.763	-0.0117
686.089	-0.011
686.415	-0.0024
686.741	0.0008
687.067	-0.0024
687.392	-0.0087
687.718	-0.0071
688.043	-0.004
688.369	0.0012
688.694	0.0002
689.02	-0.0009
689.345	-0.008
689.67	-0.0137
689.996	-0.0131
690.321	-0.0089
690.646	-0.0049
690.971	-0.0082
691.296	-0.0063
691.621	-0.005
691.946	-0.0059
692.271	-0.0119
692.596	-0.0136
692.921	-0.0095
693.245	-0.0058
693.57	-0.0074
693.895	-0.0088
694.219	-0.0124
694.544	-0.01
694.868	-0.0102
695.193	-0.0071
695.517	-0.0068
695.841	-0.0119
696.166	-0.0107
696.49	-0.0125
696.814	-0.0095
697.138	-0.0108
697.462	-0.0092
697.786	-0.0052
698.11	-0.0074
698.434	-0.0096
698.758	-0.0134
699.081	-0.0157
699.405	-0.0133
699.729	-0.0111
700.052	-0.0102
700.376	-0.0159
700.7	-0.0166
701.023	-0.0159
701.346	-0.0109
701.67	-0.0134
701.993	-0.01
702.316	-0.0112
702.639	-0.0056
702.963	-0.0112
703.286	-0.0128
703.609	-0.0097
703.932	-0.0028
704.255	0.0039
704.578	-0.0004
704.9	-0.0053
705.223	-0.0085
705.546	-0.0093
705.868	-0.0082
706.191	-0.0073
706.514	-0.0089
706.836	-0.0087
707.159	-0.0126
707.481	-0.0108
707.803	-0.0078
708.126	-0.0099
708.448	-0.0078
708.77	-0.0112
709.092	-0.0056
709.414	-0.007
709.736	-0.0091
710.058	-0.0091
710.38	-0.0084
710.702	-0.0105
711.024	-0.0089
711.345	-0.0095
711.667	-0.0065
711.989	-0.0118
712.31	-0.0122
712.632	-0.012
712.953	-0.0121
713.275	-0.0116
713.596	-0.0101
713.917	-0.009
714.239	-0.0082
714.56	-0.0098
714.881	-0.0095
715.202	-0.0081
715.523	-0.0061
715.844	-0.0017
716.165	-0.0033
716.486	-0.0037
716.807	-0.0099
717.128	-0.0109
717.448	-0.0097
717.769	-0.0085
718.09	-0.0108
718.41	-0.0135
718.731	-0.0139
719.051	-0.0113
719.372	-0.009
719.692	-0.0027
720.012	-0.0014
720.332	-0.0063
720.653	-0.0086
720.973	-0.0134
721.293	-0.0098
721.613	-0.0099
721.933	-0.0063
722.253	-0.0069
722.573	-0.0068
722.892	-0.0133
723.212	-0.014
723.532	-0.0157
723.851	-0.0165
724.171	-0.0158
724.491	-0.0156
724.81	-0.0077
725.129	-0.0099
725.449	-0.0092
725.768	-0.0076
726.087	-0.0042
726.407	-0.0063
726.726	-0.0094
727.045	-0.0139
727.364	-0.0106
727.683	-0.0092
728.002	-0.0052
728.321	-0.0092
728.64	-0.0114
728.958	-0.0121
729.277	-0.0074
729.596	-0.0039
729.914	-0.0055
730.233	-0.0066
730.551	-0.0129
730.87	-0.0112
731.188	-0.0139
731.507	-0.0091
731.825	-0.0101
732.143	-0.0083
732.461	-0.0097
732.779	-0.0053
733.097	-0.0059
733.415	-0.0087
733.733	-0.0126
734.051	-0.0139
734.369	-0.0135
734.687	-0.0143
735.005	-0.0122
735.322	-0.0079
735.64	-0.0065
735.957	-0.0055
736.275	-0.0087
736.592	-0.0115
736.91	-0.0147
737.227	-0.0133
737.544	-0.0056
737.862	-0.0006
738.179	-0.0006
738.496	-0.0041
738.813	-0.0094
739.13	-0.0081
739.447	-0.0114
739.764	-0.0088
740.081	-0.0108
740.398	-0.0112
740.714	-0.0153
741.031	-0.0138
741.348	-0.0132
741.664	-0.0104
741.981	-0.0078
742.297	-0.0051
742.614	-0.002
742.93	-0.0025
743.246	-0.0068
743.563	-0.0145
743.879	-0.0197
744.195	-0.0174
744.511	-0.013
744.827	-0.0128
745.143	-0.0078
745.459	-0.002
745.775	-0.0015
746.091	-0.0086
746.406	-0.0148
746.722	-0.012
747.038	-0.0074
747.353	-0.0073
747.669	-0.0155
747.984	-0.0153
748.3	-0.0176
748.615	-0.012
748.93	-0.0104
749.246	-0.0038
749.561	-0.0067
749.876	-0.0114
750.191	-0.0166
750.506	-0.011
750.821	-0.008
751.136	-0.0086
751.451	-0.0092
751.766	-0.0135
752.08	-0.0127
752.395	-0.0118
752.71	-0.0078
753.024	-0.0039
753.339	-0.0067
753.653	-0.0073
753.968	-0.0129
754.282	-0.0132
754.596	-0.0167
754.911	-0.011
755.225	-0.0081
755.539	-0.0068
755.853	-0.0111
756.167	-0.0136
756.481	-0.0132
756.795	-0.0127
757.109	-0.0104
757.423	-0.0087
757.736	-0.0057
758.05	-0.0084
758.364	-0.0057
758.677	-0.0052
758.991	-0.002
759.304	-0.0099
759.618	-0.0074
759.931	-0.0096
760.244	-0.0058
760.558	-0.0069
760.871	-0.0085
761.184	-0.0111
761.497	-0.0182
761.81	-0.018
762.123	-0.0149
762.436	-0.0112
762.749	-0.0076
763.062	-0.0077
763.374	-0.0105
763.687	-0.014
764	-0.013
764.312	-0.0073
764.625	-0.0086
764.937	-0.007
765.25	-0.0129
765.562	-0.0089
765.874	-0.0136
766.186	-0.012
766.499	-0.009
766.811	-0.0027
767.123	-0.0039
767.435	-0.0072
767.747	-0.0102
768.059	-0.0092
768.37	-0.0066
768.682	-0.0098
768.994	-0.0113
769.306	-0.0116
769.617	-0.009
769.929	-0.006
770.24	-0.0093
770.552	-0.0082
770.863	-0.0091
771.174	-0.0098
771.486	-0.008
771.797	-0.0076
772.108	-0.0055
772.419	-0.0042
772.73	-0.0036
773.041	-0.0057
773.352	-0.0086
773.663	-0.0101
773.974	-0.0106
774.285	-0.0148
774.595	-0.0133
774.906	-0.0109
775.217	-0.0073
775.527	-0.0095
775.838	-0.0066
776.148	-0.0038
776.458	0.0026
776.769	-0.0064
777.079	-0.0104
777.389	-0.0164
777.699	-0.0146
778.009	-0.0116
778.319	-0.0075
778.629	-0.0019
778.939	-0.0052
779.249	-0.0045
779.559	-0.0058
779.869	-0.0058
780.178	-0.0112
780.488	-0.0141
780.798	-0.0125
781.107	-0.0098
781.417	-0.0071
781.726	-0.0072
782.035	-0.0066
782.345	-0.0079
782.654	-0.0061
782.963	-0.0065
783.272	-0.0039
783.581	-0.0036
783.89	-0.0162
784.199	-0.0145
784.508	-0.0121
784.817	-0.0013
785.126	-0.0027
785.434	-0.0066
785.743	-0.0085
786.052	-0.0083
786.36	-0.0089
786.669	-0.0067
786.977	-0.0085
787.285	-0.0091
787.594	-0.0095
787.902	-0.0136
788.21	-0.0114
788.518	-0.0107
788.826	-0.0049
789.135	-0.0071
789.442	-0.0085
789.75	-0.0084
790.058	-0.0079
790.366	-0.0136
790.674	-0.0188
790.981	-0.0171
791.289	-0.0128
791.597	-0.0084
791.904	-0.0114
792.212	-0.01
792.519	-0.0138
792.826	-0.0117
793.134	-0.0064
793.441	-0.003
793.748	-0.0026
794.055	-0.0069
794.362	-0.0125
794.669	-0.0108
794.976	-0.0088
795.283	-0.0018
795.59	0.0013
795.897	-0.0054
796.203	-0.0032
796.51	-0.0054
796.817	-0.0052
797.123	-0.0084
797.43	-0.0077
797.736	-0.0039
798.042	-0.0066
798.349	-0.0093
798.655	-0.0102
798.961	-0.0109
799.267	-0.0113
799.573	-0.0142
799.879	-0.0101
800.185	-0.0061
800.491	-0.0068
800.797	-0.0106
801.103	-0.014
801.408	-0.0157
801.714	-0.0146
802.02	-0.0101
802.325	-0.0048
802.631	-0.0009
802.936	-0.0086
803.242	-0.016
803.547	-0.0171
803.852	-0.0092
804.157	-0.0069
804.462	-0.0059
804.768	-0.0077
805.073	-0.0033
805.378	-0.0056
805.682	-0.0119
805.987	-0.0177
806.292	-0.0182
806.597	-0.0152
806.902	-0.0076
807.206	-0.0058
807.511	-0.0092
807.815	-0.0111
808.12	-0.0096
808.424	-0.0079
808.728	-0.0095
809.033	-0.0071
809.337	-0.0051
809.641	-0.0043
809.945	-0.0101
810.249	-0.0132
810.553	-0.0067
810.857	-0.0021
811.161	0.0003
811.465	-0.0077
811.768	-0.0133
812.072	-0.0158
812.376	-0.0211
812.679	-0.0154
812.983	-0.0159
813.286	-0.0157
813.59	-0.0169
813.893	-0.0188
814.196	-0.0096
814.499	-0.0206
814.803	-0.0207
815.106	-0.0245
815.409	-0.0118
815.712	-0.0049
816.015	-0.0041
816.318	-0.0117
816.62	-0.0112
816.923	-0.0112
817.226	-0.0088
817.528	-0.0113
817.831	-0.0132
818.133	-0.0144
818.436	-0.014
818.738	-0.0123
819.041	-0.0075
819.343	-0.0028
819.645	-0.0054
819.947	0.0002
820.249	-0.0046
820.551	0.005
820.853	-0.0006
821.155	-0.0114
821.457	-0.0236
821.759	-0.0201
822.061	-0.0077
822.362	0.0002
822.664	-0.002
822.966	-0.0038
823.267	-0.0061
823.569	-0.0193
823.87	-0.0107
824.171	-0.0155
824.473	-0.0098
824.774	-0.0199
825.075	-0.0153
825.376	-0.0156
825.677	-0.0135
825.978	-0.0212
826.279	-0.0121
826.58	-0.0128
826.881	-0.0116
827.181	-0.0148
827.482	-0.0083
827.783	-0.0023
828.083	-0.0064
828.384	-0.0184
828.684	-0.0204
828.985	-0.0225
829.285	-0.0236
829.585	-0.0144
829.885	0
830.185	0.0088
830.486	0.0064
830.786	0.0021
831.086	-0.0084
831.385	-0.0135
831.685	-0.0218
831.985	-0.0159
832.285	-0.0131
832.585	-0.0042
832.884	-0.0118
833.184	-0.0148
833.483	-0.0221
833.783	-0.0103
834.082	-0.0118
834.381	-0.0078
834.681	-0.0047
834.98	-0.0048
835.279	-0.0121
835.578	-0.0253
835.877	-0.0178
836.176	-0.0238
836.475	-0.011
836.774	-0.0232
837.072	-0.0192
837.371	-0.0353
837.67	-0.0269
837.968	-0.0236
838.267	-0.0136
838.565	-0.0167
838.864	-0.0088
839.162	-0.0103
839.46	-0.0069
839.759	-0.0081
840.057	-0.0114
840.355	-0.0051
840.653	-0.0073
840.951	-0.0072
841.249	-0.0106
841.547	-0.0182
841.845	-0.0146
842.142	-0.0238
842.44	-0.0234
842.738	-0.0335
843.035	-0.0296
843.333	-0.0236
843.63	-0.0168
843.928	-0.0221
844.225	-0.0244
844.522	-0.0171
844.82	-0.0125
845.117	-0.0036
845.414	-0.0022
845.711	-0.0096
846.008	-0.0173
846.305	-0.0125
846.602	-0.0035
846.898	0.0039
847.195	-0.0086
847.492	-0.0044
847.788	-0.011
848.085	-0.0091
848.382	-0.0184
848.678	-0.0227
848.974	-0.0075
849.271	0.0018
849.567	0.0006
849.863	-0.0096
850.159	-0.0084
850.455	-0.0058
850.751	-0.0104
851.047	-0.0187
851.343	-0.023
851.639	-0.0276
851.935	-0.0311
852.23	-0.0253
852.526	-0.0269
852.822	-0.021
853.117	-0.0192
853.413	-0.0131
853.708	-0.0138
854.003	-0.0234
854.299	-0.0149
854.594	-0.029
854.889	-0.0243
855.184	-0.0298
855.479	-0.0158
855.774	-0.0283
856.069	-0.0249
856.364	-0.0244
856.659	-0.0096
856.954	-0.0161
857.248	-0.018
857.543	-0.0169
857.837	-0.0117
858.132	-0.0026
858.426	0.0051
858.721	0.0062
859.015	0.0101
859.309	0.0101
859.604	-0.0107
859.898	0.0033
860.192	-0.001
860.486	0.016
860.78	0.0047
861.074	0.0007
861.367	-0.0002
861.661	-0.0213
861.955	-0.0228
862.248	-0.0107
862.542	0.001
862.836	0.0142
863.129	0.025
863.422	0.018
863.716	0.0115
864.009	-0.0132
864.302	-0.0184
864.595	-0.0336
864.889	-0.0251
865.182	-0.0352
865.475	-0.0321
865.767	-0.036
866.06	-0.0116
866.353	-0.001
866.646	-0.0061
866.938	-0.0114
867.231	0.0055
867.524	0.0096
867.816	-0.0088
868.109	-0.0373
868.401	-0.0373
868.693	-0.0298
868.985	-0.0136
869.278	-0.0124
869.57	-0.0029
869.862	-0.0171
870.154	-0.0293
870.446	-0.03
870.738	-0.033
871.029	-0.0298
871.321	-0.0311
871.613	-0.0233
871.904	-0.0345
872.196	-0.0305
872.487	-0.0405
872.779	-0.0278
873.07	-0.0302
873.362	-0.0292
873.653	-0.0326
873.944	-0.0385
874.235	-0.0343
874.526	-0.0096
874.817	0.0174
875.108	0.0314
875.399	0.0114
875.69	-0.0076
875.981	-0.0333
876.271	-0.0314
876.562	-0.0427
876.853	0.0039
877.143	-0.005
877.434	-0.013
877.724	-0.0649
878.014	-0.0535
878.305	-0.04
878.595	-0.0329
878.885	-0.0013
879.175	0.0213
879.465	0.0276
879.755	-0.0273
880.045	-0.0555
880.335	-0.0666
880.624	-0.0477
880.914	-0.0477
