Data from 20SS02LI_072217_1a_Absorbance_18-30-28-769.txt Node
Date: Fri Jul 28 18:30:28 MDT 2017
User: Tank Lab
Spectrometer: FLMS01220
Trigger mode: 0
Integration Time (sec): 1.000000E-1
Scans to average: 10
Electric dark correction enabled: true
Nonlinearity correction enabled: false
Boxcar width: 1
XAxis mode: Wavelengths
Number of Pixels in Spectrum: 2048
>>>>>Begin Spectral Data<<<<<
179.47	-0
179.856	-0
180.241	-0
180.626	-0
181.011	-0
181.396	0.2924
181.781	0.3606
182.166	-0.2956
182.551	0.2187
182.936	0.6023
183.321	-0
183.706	0.2177
184.091	-0.5858
184.476	-0.5568
184.86	-0
185.245	-0.9796
185.63	-0.1726
186.015	-0.0781
186.399	0.7775
186.784	-0
187.169	-0
187.553	-0
187.938	-0
188.322	-0.12
188.707	-0.0238
189.091	0.0592
189.475	0.1099
189.86	0.1204
190.244	0.1225
190.629	0.117
191.013	0.1667
191.397	0.2323
191.781	0.2821
192.165	0.3097
192.55	0.3237
192.934	0.3327
193.318	0.3525
193.702	0.3675
194.086	0.3783
194.47	0.3759
194.854	0.3909
195.238	0.3861
195.622	0.3914
196.006	0.3854
196.389	0.3837
196.773	0.3822
197.157	0.3871
197.541	0.3971
197.924	0.3854
198.308	0.379
198.692	0.3712
199.075	0.3689
199.459	0.3587
199.843	0.3494
200.226	0.3458
200.61	0.3451
200.993	0.345
201.376	0.3445
201.76	0.3369
202.143	0.3351
202.527	0.3308
202.91	0.3319
203.293	0.3284
203.676	0.3272
204.059	0.3271
204.443	0.3224
204.826	0.3224
205.209	0.3147
205.592	0.3175
205.975	0.3122
206.358	0.3143
206.741	0.3115
207.124	0.3143
207.507	0.3074
207.89	0.3036
208.273	0.3004
208.655	0.3024
209.038	0.2993
209.421	0.2935
209.804	0.2928
210.186	0.2947
210.569	0.2929
210.951	0.2901
211.334	0.2877
211.717	0.2862
212.099	0.2835
212.482	0.2799
212.864	0.2783
213.246	0.2776
213.629	0.2782
214.011	0.2762
214.393	0.2732
214.776	0.2697
215.158	0.2666
215.54	0.2665
215.922	0.2664
216.305	0.2685
216.687	0.2667
217.069	0.2625
217.451	0.2613
217.833	0.2594
218.215	0.2595
218.597	0.2559
218.979	0.2519
219.361	0.2486
219.742	0.2481
220.124	0.2504
220.506	0.2516
220.888	0.2471
221.27	0.2435
221.651	0.2414
222.033	0.2398
222.415	0.2381
222.796	0.2353
223.178	0.2364
223.559	0.2323
223.941	0.2279
224.322	0.2251
224.704	0.2232
225.085	0.2238
225.466	0.2205
225.848	0.2225
226.229	0.2203
226.61	0.2207
226.992	0.2171
227.373	0.217
227.754	0.2151
228.135	0.212
228.516	0.2088
228.897	0.2062
229.278	0.2075
229.659	0.2057
230.04	0.2058
230.421	0.2041
230.802	0.2035
231.183	0.2043
231.564	0.2038
231.944	0.2016
232.325	0.1982
232.706	0.196
233.087	0.1968
233.467	0.196
233.848	0.1959
234.229	0.1948
234.609	0.1946
234.99	0.1917
235.37	0.1897
235.751	0.187
236.131	0.1856
236.511	0.1853
236.892	0.1847
237.272	0.1848
237.652	0.1847
238.033	0.184
238.413	0.1835
238.793	0.1815
239.173	0.1799
239.553	0.1781
239.933	0.1782
240.313	0.1778
240.694	0.1754
241.074	0.1725
241.453	0.1726
241.833	0.1747
242.213	0.1758
242.593	0.1727
242.973	0.1692
243.353	0.1671
243.732	0.1685
244.112	0.1687
244.492	0.1686
244.872	0.1679
245.251	0.1687
245.631	0.1683
246.01	0.1675
246.39	0.1662
246.769	0.1655
247.149	0.1651
247.528	0.1655
247.908	0.1657
248.287	0.1651
248.666	0.1636
249.045	0.1618
249.425	0.1613
249.804	0.161
250.183	0.1616
250.562	0.1592
250.941	0.1595
251.32	0.1576
251.699	0.1575
252.078	0.1557
252.457	0.1568
252.836	0.1574
253.215	0.1575
253.594	0.1557
253.973	0.1558
254.352	0.1556
254.731	0.1546
255.109	0.153
255.488	0.1519
255.867	0.1532
256.245	0.1524
256.624	0.1533
257.002	0.1513
257.381	0.1524
257.759	0.15
258.138	0.1501
258.516	0.1492
258.895	0.1503
259.273	0.1499
259.651	0.1482
260.03	0.1465
260.408	0.1457
260.786	0.1458
261.164	0.1466
261.542	0.1474
261.921	0.1467
262.299	0.146
262.677	0.1431
263.055	0.1432
263.433	0.1419
263.811	0.1431
264.188	0.1418
264.566	0.1412
264.944	0.1407
265.322	0.1408
265.7	0.1412
266.077	0.14
266.455	0.1387
266.833	0.1378
267.21	0.1385
267.588	0.1389
267.966	0.1391
268.343	0.1375
268.721	0.1366
269.098	0.1351
269.475	0.1359
269.853	0.1357
270.23	0.1356
270.607	0.1337
270.985	0.1333
271.362	0.1334
271.739	0.1326
272.116	0.1321
272.494	0.1309
272.871	0.1314
273.248	0.131
273.625	0.1295
274.002	0.1284
274.379	0.1262
274.756	0.1262
275.132	0.1248
275.509	0.1254
275.886	0.124
276.263	0.1236
276.64	0.1221
277.016	0.1234
277.393	0.1248
277.77	0.1234
278.146	0.1214
278.523	0.119
278.899	0.1184
279.276	0.118
279.652	0.1186
280.029	0.1208
280.405	0.1202
280.782	0.1189
281.158	0.117
281.534	0.1161
281.91	0.1153
282.287	0.1149
282.663	0.1165
283.039	0.1162
283.415	0.1131
283.791	0.1109
284.167	0.1095
284.543	0.1116
284.919	0.1114
285.295	0.1117
285.671	0.1114
286.047	0.111
286.423	0.1094
286.799	0.1083
287.174	0.1074
287.55	0.1062
287.926	0.1058
288.301	0.1058
288.677	0.1074
289.053	0.1075
289.428	0.1066
289.804	0.1054
290.179	0.1049
290.555	0.1062
290.93	0.1054
291.305	0.1033
291.681	0.1026
292.056	0.1032
292.431	0.1031
292.806	0.1032
293.182	0.1029
293.557	0.1031
293.932	0.1007
294.307	0.099
294.682	0.0982
295.057	0.0981
295.432	0.0982
295.807	0.0977
296.182	0.0976
296.557	0.0969
296.932	0.0973
297.306	0.0966
297.681	0.0954
298.056	0.0929
298.43	0.0918
298.805	0.0907
299.18	0.0915
299.554	0.0921
299.929	0.094
300.303	0.0937
300.678	0.092
301.052	0.0919
301.427	0.0928
301.801	0.0925
302.175	0.0904
302.55	0.089
302.924	0.0892
303.298	0.0888
303.672	0.089
304.046	0.0884
304.421	0.0895
304.795	0.0886
305.169	0.0887
305.543	0.0867
305.917	0.0852
306.291	0.0843
306.664	0.0847
307.038	0.0845
307.412	0.0848
307.786	0.0829
308.16	0.0829
308.533	0.081
308.907	0.0824
309.281	0.0824
309.654	0.0828
310.028	0.0834
310.401	0.0835
310.775	0.0813
311.148	0.081
311.522	0.0801
311.895	0.0814
312.268	0.0803
312.642	0.0802
313.015	0.0802
313.388	0.0789
313.761	0.0786
314.135	0.0801
314.508	0.0818
314.881	0.0805
315.254	0.0774
315.627	0.0761
316	0.0777
316.373	0.0777
316.746	0.0769
317.118	0.0761
317.491	0.0758
317.864	0.0765
318.237	0.0746
318.61	0.0735
318.982	0.0724
319.355	0.0721
319.727	0.073
320.1	0.0724
320.473	0.0713
320.845	0.0726
321.218	0.0725
321.59	0.0727
321.962	0.0704
322.335	0.0691
322.707	0.0711
323.079	0.0709
323.452	0.072
323.824	0.0714
324.196	0.0716
324.568	0.07
324.94	0.069
325.312	0.0692
325.684	0.07
326.056	0.0677
326.428	0.0659
326.8	0.0635
327.172	0.0643
327.544	0.0616
327.915	0.0613
328.287	0.0621
328.659	0.0662
329.031	0.0676
329.402	0.0663
329.774	0.064
330.145	0.0612
330.517	0.0605
330.888	0.059
331.26	0.06
331.631	0.0598
332.003	0.0601
332.374	0.0592
332.745	0.0594
333.117	0.0595
333.488	0.0587
333.859	0.0595
334.23	0.0583
334.601	0.0596
334.972	0.0603
335.343	0.0615
335.714	0.0607
336.085	0.0583
336.456	0.0574
336.827	0.0581
337.198	0.0586
337.569	0.057
337.94	0.0568
338.31	0.0559
338.681	0.0579
339.052	0.0578
339.422	0.0581
339.793	0.0567
340.164	0.0557
340.534	0.055
340.905	0.0542
341.275	0.0537
341.645	0.0534
342.016	0.055
342.386	0.0545
342.756	0.0565
343.127	0.0535
343.497	0.0533
343.867	0.0532
344.237	0.0542
344.607	0.0532
344.977	0.0509
345.347	0.0514
345.717	0.0503
346.087	0.05
346.457	0.0513
346.827	0.0527
347.197	0.0539
347.567	0.052
347.936	0.051
348.306	0.0502
348.676	0.0503
349.046	0.0507
349.415	0.0497
349.785	0.0507
350.154	0.0498
350.524	0.0504
350.893	0.0477
351.263	0.0484
351.632	0.0487
352.001	0.0488
352.371	0.0476
352.74	0.0457
353.109	0.0463
353.478	0.0484
353.847	0.0494
354.217	0.0505
354.586	0.049
354.955	0.0485
355.324	0.0472
355.693	0.0488
356.062	0.0493
356.43	0.0504
356.799	0.0473
357.168	0.0468
357.537	0.0453
357.906	0.0466
358.274	0.0463
358.643	0.046
359.011	0.0457
359.38	0.0452
359.749	0.0458
360.117	0.0436
360.486	0.0441
360.854	0.0421
361.222	0.0422
361.591	0.0406
361.959	0.0417
362.327	0.0436
362.695	0.0445
363.064	0.0445
363.432	0.0438
363.8	0.0435
364.168	0.0415
364.536	0.0417
364.904	0.0401
365.272	0.0413
365.64	0.0403
366.008	0.0407
366.376	0.0382
366.743	0.0379
367.111	0.0388
367.479	0.0396
367.847	0.0396
368.214	0.0398
368.582	0.0409
368.949	0.0421
369.317	0.0397
369.684	0.0381
370.052	0.0366
370.419	0.0372
370.787	0.039
371.154	0.041
371.521	0.0423
371.889	0.0405
372.256	0.0377
372.623	0.0372
372.99	0.0382
373.357	0.0392
373.724	0.0388
374.091	0.0395
374.458	0.0384
374.825	0.038
375.192	0.0356
375.559	0.0356
375.926	0.0372
376.293	0.0356
376.659	0.0369
377.026	0.0351
377.393	0.0377
377.759	0.0368
378.126	0.0369
378.492	0.0354
378.859	0.0348
379.225	0.0319
379.592	0.0324
379.958	0.0313
380.325	0.032
380.691	0.0325
381.057	0.0319
381.423	0.0335
381.79	0.0332
382.156	0.0332
382.522	0.0335
382.888	0.0341
383.254	0.0364
383.62	0.0359
383.986	0.0348
384.352	0.0336
384.718	0.0328
385.084	0.0336
385.449	0.0331
385.815	0.0332
386.181	0.0328
386.547	0.0348
386.912	0.0336
387.278	0.0339
387.643	0.0323
388.009	0.0341
388.374	0.0316
388.74	0.0314
389.105	0.0303
389.471	0.0319
389.836	0.0336
390.201	0.0331
390.566	0.0336
390.932	0.032
391.297	0.0295
391.662	0.0281
392.027	0.0274
392.392	0.0287
392.757	0.0283
393.122	0.028
393.487	0.0314
393.852	0.0314
394.217	0.0315
394.582	0.0314
394.946	0.0325
395.311	0.0322
395.676	0.0298
396.04	0.0284
396.405	0.0294
396.77	0.0301
397.134	0.0285
397.499	0.0285
397.863	0.0261
398.227	0.0292
398.592	0.0264
398.956	0.0284
399.32	0.0269
399.685	0.0284
400.049	0.0283
400.413	0.0266
400.777	0.0264
401.141	0.027
401.505	0.0286
401.869	0.0294
402.233	0.0286
402.597	0.0283
402.961	0.0269
403.325	0.0273
403.689	0.029
404.053	0.0307
404.416	0.0288
404.78	0.0283
405.144	0.0274
405.507	0.029
405.871	0.0286
406.234	0.0271
406.598	0.0261
406.961	0.0263
407.325	0.0267
407.688	0.0266
408.051	0.0259
408.415	0.027
408.778	0.0267
409.141	0.0269
409.504	0.0274
409.867	0.0277
410.23	0.0283
410.593	0.0276
410.956	0.0279
411.319	0.0266
411.682	0.0225
412.045	0.0236
412.408	0.0217
412.771	0.0256
413.134	0.023
413.496	0.0235
413.859	0.023
414.222	0.0243
414.584	0.0278
414.947	0.0282
415.309	0.029
415.672	0.0275
416.034	0.0263
416.396	0.0258
416.759	0.0252
417.121	0.0258
417.483	0.0232
417.846	0.0227
418.208	0.0231
418.57	0.0251
418.932	0.0233
419.294	0.0228
419.656	0.0211
420.018	0.0242
420.38	0.0232
420.742	0.0221
421.104	0.0205
421.466	0.0207
421.827	0.0218
422.189	0.0206
422.551	0.021
422.912	0.0227
423.274	0.0249
423.636	0.0242
423.997	0.0248
424.359	0.0244
424.72	0.026
425.081	0.0259
425.443	0.0269
425.804	0.0265
426.165	0.0253
426.527	0.0231
426.888	0.0209
427.249	0.0195
427.61	0.021
427.971	0.0217
428.332	0.0211
428.693	0.0217
429.054	0.0207
429.415	0.0221
429.776	0.0196
430.137	0.0196
430.498	0.0207
430.858	0.0232
431.219	0.0219
431.58	0.022
431.94	0.0204
432.301	0.0219
432.661	0.0195
433.022	0.0177
433.382	0.0181
433.743	0.0215
434.103	0.0228
434.463	0.0224
434.824	0.0209
435.184	0.023
435.544	0.0243
435.904	0.024
436.264	0.0217
436.624	0.0219
436.985	0.021
437.345	0.0235
437.704	0.022
438.064	0.0217
438.424	0.0182
438.784	0.019
439.144	0.0201
439.504	0.0207
439.863	0.0188
440.223	0.0191
440.583	0.0204
440.942	0.0213
441.302	0.0209
441.661	0.0182
442.021	0.018
442.38	0.0164
442.739	0.018
443.099	0.0176
443.458	0.0208
443.817	0.0222
444.176	0.0228
444.536	0.0211
444.895	0.0196
445.254	0.019
445.613	0.0195
445.972	0.0195
446.331	0.0196
446.69	0.0172
447.049	0.0144
447.407	0.0142
447.766	0.0152
448.125	0.0196
448.484	0.0219
448.842	0.0237
449.201	0.0232
449.559	0.0191
449.918	0.0195
450.276	0.018
450.635	0.0218
450.993	0.0187
451.352	0.0185
451.71	0.0175
452.068	0.0189
452.426	0.019
452.785	0.0186
453.143	0.0167
453.501	0.0183
453.859	0.0165
454.217	0.0187
454.575	0.0146
454.933	0.0149
455.291	0.017
455.649	0.0203
456.006	0.0194
456.364	0.0155
456.722	0.015
457.079	0.0174
457.437	0.0185
457.795	0.0202
458.152	0.0209
458.51	0.0204
458.867	0.0195
459.225	0.0188
459.582	0.0203
459.939	0.0178
460.297	0.0175
460.654	0.0155
461.011	0.0157
461.368	0.0168
461.725	0.0148
462.082	0.0173
462.44	0.0138
462.797	0.0165
463.153	0.0163
463.51	0.0167
463.867	0.0163
464.224	0.0166
464.581	0.018
464.938	0.0191
465.294	0.0194
465.651	0.0211
466.008	0.0186
466.364	0.0175
466.721	0.0161
467.077	0.0165
467.434	0.0148
467.79	0.0162
468.146	0.0165
468.503	0.0176
468.859	0.0172
469.215	0.0167
469.571	0.0147
469.927	0.0159
470.284	0.0171
470.64	0.0198
470.996	0.0165
471.352	0.0159
471.707	0.013
472.063	0.0154
472.419	0.0162
472.775	0.0186
473.131	0.0213
473.486	0.0175
473.842	0.0174
474.198	0.0142
474.553	0.0174
474.909	0.0195
475.264	0.0185
475.62	0.0196
475.975	0.0193
476.331	0.0187
476.686	0.0201
477.041	0.0169
477.396	0.0153
477.752	0.0139
478.107	0.015
478.462	0.0162
478.817	0.0146
479.172	0.0172
479.527	0.0165
479.882	0.0156
480.237	0.0131
480.591	0.0151
480.946	0.0177
481.301	0.0188
481.656	0.0197
482.01	0.0172
482.365	0.0169
482.72	0.0175
483.074	0.0183
483.429	0.0166
483.783	0.0139
484.137	0.0144
484.492	0.0154
484.846	0.0161
485.2	0.0181
485.555	0.018
485.909	0.0174
486.263	0.0136
486.617	0.014
486.971	0.0123
487.325	0.0129
487.679	0.0117
488.033	0.0152
488.387	0.0176
488.741	0.0174
489.094	0.0144
489.448	0.0123
489.802	0.0139
490.156	0.0141
490.509	0.0157
490.863	0.014
491.216	0.015
491.57	0.0136
491.923	0.015
492.277	0.0165
492.63	0.0166
492.983	0.0162
493.337	0.0142
493.69	0.0144
494.043	0.0128
494.396	0.0129
494.749	0.0115
495.102	0.0116
495.455	0.0126
495.808	0.014
496.161	0.016
496.514	0.0135
496.867	0.0119
497.22	0.0115
497.572	0.0126
497.925	0.0157
498.278	0.0149
498.63	0.016
498.983	0.0133
499.335	0.0118
499.688	0.0106
500.04	0.0096
500.393	0.0103
500.745	0.0093
501.097	0.0103
501.449	0.0119
501.802	0.0129
502.154	0.0137
502.506	0.0131
502.858	0.0117
503.21	0.0114
503.562	0.0095
503.914	0.0104
504.266	0.01
504.618	0.0098
504.969	0.0134
505.321	0.0146
505.673	0.0167
506.025	0.0128
506.376	0.0112
506.728	0.0105
507.079	0.0124
507.431	0.0138
507.782	0.0143
508.134	0.0149
508.485	0.0151
508.836	0.016
509.188	0.0129
509.539	0.0097
509.89	0.0094
510.241	0.0093
510.592	0.0103
510.943	0.0088
511.294	0.0111
511.645	0.0106
511.996	0.0126
512.347	0.0115
512.698	0.013
513.049	0.0115
513.399	0.0149
513.75	0.0146
514.101	0.0135
514.451	0.0094
514.802	0.0082
515.152	0.008
515.503	0.0092
515.853	0.0111
516.203	0.0141
516.554	0.0136
516.904	0.0129
517.254	0.0112
517.604	0.0124
517.955	0.0135
518.305	0.0103
518.655	0.0077
519.005	0.0062
519.355	0.0085
519.705	0.0079
520.055	0.0068
520.404	0.0056
520.754	0.0068
521.104	0.0094
521.454	0.0107
521.803	0.0113
522.153	0.0114
522.502	0.0103
522.852	0.0113
523.201	0.0106
523.551	0.0116
523.9	0.0091
524.249	0.008
524.599	0.0081
524.948	0.0091
525.297	0.0083
525.646	0.0065
525.995	0.0053
526.344	0.0043
526.694	0.0059
527.042	0.0078
527.391	0.0092
527.74	0.0094
528.089	0.011
528.438	0.0128
528.787	0.0108
529.135	0.0073
529.484	0.005
529.833	0.0072
530.181	0.0071
530.53	0.0077
530.878	0.005
531.227	0.0061
531.575	0.0072
531.923	0.0092
532.271	0.0084
532.62	0.0078
532.968	0.0079
533.316	0.0076
533.664	0.0107
534.012	0.0128
534.36	0.0168
534.708	0.0125
535.056	0.0078
535.404	0.005
535.752	0.0088
536.1	0.0097
536.447	0.0086
536.795	0.0064
537.143	0.0083
537.49	0.0105
537.838	0.0094
538.185	0.0085
538.533	0.0073
538.88	0.008
539.228	0.0088
539.575	0.0084
539.922	0.0092
540.269	0.0104
540.617	0.0109
540.964	0.0084
541.311	0.0056
541.658	0.0061
542.005	0.0072
542.352	0.0087
542.699	0.0081
543.045	0.0074
543.392	0.0084
543.739	0.0082
544.086	0.0068
544.432	0.0041
544.779	0.0032
545.126	0.0056
545.472	0.0064
545.819	0.0069
546.165	0.0047
546.512	0.0039
546.858	0.0016
547.204	0.0029
547.55	0.0046
547.897	0.0061
548.243	0.0061
548.589	0.0066
548.935	0.0065
549.281	0.0084
549.627	0.0075
549.973	0.0102
550.319	0.0085
550.665	0.0089
551.01	0.0068
551.356	0.0078
551.702	0.007
552.048	0.0079
552.393	0.0066
552.739	0.0054
553.084	0.0052
553.43	0.0062
553.775	0.0081
554.12	0.0101
554.466	0.0083
554.811	0.0069
555.156	0.0018
555.502	0.0018
555.847	0.0024
556.192	0.0047
556.537	0.0032
556.882	0.0022
557.227	0.0016
557.572	0.0033
557.917	0.0061
558.261	0.0068
558.606	0.01
558.951	0.0064
559.295	0.0059
559.64	0.0038
559.985	0.0075
560.329	0.009
560.674	0.0075
561.018	0.0043
561.363	0.0029
561.707	0.0029
562.051	0.0043
562.395	0.004
562.74	0.0043
563.084	0.0051
563.428	0.0056
563.772	0.0048
564.116	0.003
564.46	0.0033
564.804	0.0024
565.148	0.0022
565.492	0.0015
565.835	0.002
566.179	0.0057
566.523	0.0055
566.866	0.0068
567.21	0.0042
567.554	0.0055
567.897	0.0086
568.24	0.0083
568.584	0.0076
568.927	0.0025
569.271	0.0039
569.614	0.0007
569.957	0.0032
570.3	-0.0007
570.643	0.0013
570.986	-0
571.329	0.0053
571.672	0.0085
572.015	0.0094
572.358	0.01
572.701	0.0075
573.044	0.0043
573.387	0.0006
573.729	0.0014
574.072	0.0039
574.414	0.0029
574.757	0.0033
575.099	0.0006
575.442	0.0007
575.784	0.0007
576.127	0.0044
576.469	0.0062
576.811	0.0066
577.153	0.0074
577.496	0.0034
577.838	0.0039
578.18	0.0003
578.522	0.0016
578.864	-0.0024
579.206	-0.0002
579.548	-0.0002
579.889	-0.0026
580.231	-0.002
580.573	0.0006
580.915	0.0029
581.256	0.0008
581.598	-0.0004
581.939	-0.0008
582.281	0.0004
582.622	0.0025
582.964	0.0039
583.305	0.0038
583.646	0.0021
583.988	0.0038
584.329	0.0041
584.67	0.0031
585.011	0.0012
585.352	0.0016
585.693	0.004
586.034	0.0049
586.375	0.0054
586.716	0.0057
587.057	0.0072
587.398	0.002
587.738	0.0031
588.079	0.0031
588.42	0.0067
588.76	0.0027
589.101	0.0007
589.441	0.0005
589.782	0.0035
590.122	0.0031
590.463	0.0016
590.803	0.0002
591.143	0.0025
591.483	0.0011
591.823	0.0023
592.164	0.0021
592.504	0.0036
592.844	0.0035
593.184	0.0032
593.523	0.0041
593.863	0.0043
594.203	0.0013
594.543	-0.0002
594.883	-0.0007
595.222	0.0012
595.562	0.004
595.901	0.0052
596.241	0.0028
596.58	0.0012
596.92	0.0008
597.259	0.0026
597.599	0.0037
597.938	0.0016
598.277	0.0048
598.616	0.0032
598.955	0.0068
599.295	0.0027
599.634	0.0036
599.973	-0.0013
600.312	0.0002
600.65	0.0019
600.989	0.0036
601.328	0.0069
601.667	0.0062
602.005	0.0039
602.344	0.0015
602.683	-0.0003
603.021	0.0011
603.36	-0.0004
603.698	0.0011
604.037	0.0012
604.375	0.0045
604.713	0.0027
605.052	0.0018
605.39	0.0002
605.728	-0.0002
606.066	0.0005
606.404	-0.0038
606.742	-0.0019
607.08	-0.0009
607.418	0.001
607.756	0
608.094	-0.0031
608.431	-0.0018
608.769	-0.0005
609.107	-0.0015
609.444	-0.0009
609.782	-0.0018
610.12	0.003
610.457	0.0035
610.794	0.002
611.132	0.0011
611.469	-0.0023
611.806	-0.0002
612.144	-0.0005
612.481	0.001
612.818	0.0044
613.155	0.0048
613.492	0.0064
613.829	0.0046
614.166	0.0049
614.503	0.005
614.84	0.0027
615.176	-0.0005
615.513	-0.0017
615.85	-0.0021
616.187	0.0019
616.523	0.0019
616.86	0
617.196	-0.003
617.533	-0.0028
617.869	0.0002
618.205	0.0019
618.542	0.0022
618.878	0.0006
619.214	-0.0018
619.55	-0.002
619.886	0.0004
620.222	0.0001
620.558	-0.0004
620.894	0.0017
621.23	0.0031
621.566	0.0031
621.902	-0.0016
622.238	-0.0052
622.573	-0.0004
622.909	-0.0002
623.244	0.0009
623.58	-0.002
623.916	-0.0017
624.251	0.0007
624.586	-0.0011
624.922	-0.001
625.257	-0.0005
625.592	-0.0006
625.927	0.0039
626.263	0.004
626.598	0.0023
626.933	0.0006
627.268	0.0007
627.603	0.0018
627.938	-0.0007
628.272	-0.0008
628.607	-0.0021
628.942	-0.0011
629.277	-0.0003
629.611	0.0031
629.946	0.0045
630.281	0.0028
630.615	0.0041
630.949	0.0031
631.284	0.0041
631.618	0.0017
631.953	0.0024
632.287	0.0033
632.621	0.0052
632.955	0.0057
633.289	0.0045
633.623	0.0035
633.957	0.0041
634.291	0.0005
634.625	-0.0007
634.959	-0.0043
635.293	-0.0009
635.627	-0.0062
635.96	-0.0045
636.294	-0.0049
636.627	-0.0018
636.961	-0.0014
637.294	-0.0055
637.628	-0.0055
637.961	-0.0063
638.295	-0.0028
638.628	-0.0017
638.961	-0.0018
639.294	0.001
639.628	0.0014
639.961	-0.0012
640.294	-0.0018
640.627	-0.0046
640.96	-0.0033
641.293	-0.0037
641.625	-0.0026
641.958	-0.0004
642.291	0.0009
642.624	0.0044
642.956	0.0034
643.289	0.0007
643.621	-0.0038
643.954	-0.0065
644.286	-0.0084
644.619	-0.0086
644.951	-0.0034
645.283	-0.0047
645.616	-0.0005
645.948	-0.0027
646.28	0.0028
646.612	0.0023
646.944	0.006
647.276	0.0026
647.608	-0.0008
647.94	-0.0023
648.272	0.0007
648.603	0.002
648.935	0.0022
649.267	0.0004
649.598	0.0021
649.93	-0.0039
650.261	-0.0037
650.593	-0.0028
650.924	0.0022
651.256	0.004
651.587	0.0014
651.918	0.0037
652.25	0.0017
652.581	0.0013
652.912	-0.004
653.243	-0.0023
653.574	-0.0035
653.905	-0.0029
654.236	-0.0034
654.567	-0.0001
654.897	0.0008
655.228	0.0043
655.559	0.0042
655.89	0.005
656.22	-0.0006
656.551	-0.0014
656.881	-0.0011
657.212	-0.002
657.542	-0.0002
657.872	-0.0039
658.203	0.0022
658.533	0.0027
658.863	0.0001
659.193	-0.0036
659.523	-0.0053
659.853	-0.0073
660.183	-0.0066
660.513	-0.0059
660.843	-0.0035
661.173	0.0003
661.503	-0.0006
661.833	-0.0007
662.162	-0.0006
662.492	0.0039
662.822	0.0006
663.151	-0.0023
663.481	-0.0055
663.81	-0.0091
664.139	-0.0043
664.469	-0.0043
664.798	0.003
665.127	0.0018
665.456	0.0066
665.785	0.0051
666.114	0
666.443	-0.003
666.772	-0.0009
667.101	-0.0003
667.43	-0.0008
667.759	-0.0006
668.088	0.0015
668.416	0.0023
668.745	0.0033
669.074	0.001
669.402	-0.0026
669.731	-0.0084
670.059	-0.0067
670.388	0.0007
670.716	0.0029
671.044	0.0051
671.372	0.0015
671.701	-0.0023
672.029	-0.0047
672.357	-0.0067
672.685	-0.0034
673.013	-0.0023
673.341	0.0012
673.669	-0.0003
673.996	-0.0027
674.324	-0.0082
674.652	-0.0051
674.98	-0.0011
675.307	0.003
675.635	-0.0011
675.962	-0.0012
676.29	-0.0013
676.617	0.0065
676.945	0.002
677.272	0.0039
677.599	0.0031
677.926	0.0037
678.253	0.0008
678.581	-0.0024
678.908	-0.004
679.235	-0.0042
679.561	-0.002
679.888	0.0031
680.215	0.0025
680.542	0.0017
680.869	-0.0033
681.195	-0.0008
681.522	-0.0027
681.849	-0.0023
682.175	-0.0053
682.502	-0.0034
682.828	-0.0017
683.154	-0.0013
683.481	-0.0014
683.807	-0.0014
684.133	-0.0034
684.459	-0.0038
684.785	-0.005
685.111	-0.0048
685.437	-0.0049
685.763	-0.0043
686.089	-0.007
686.415	-0.0107
686.741	-0.0083
687.067	-0.002
687.392	-0.0011
687.718	-0.0022
688.043	0
688.369	0.0024
688.694	0.0057
689.02	-0.0023
689.345	-0.0012
689.67	-0.0075
689.996	-0.0028
690.321	-0.0036
690.646	0.0006
690.971	-0.0027
691.296	-0.0048
691.621	-0.0057
691.946	0.0006
692.271	-0.001
692.596	-0.0038
692.921	-0.0033
693.245	0.0019
693.57	0.0035
693.895	0.0025
694.219	0.0003
694.544	-0.0009
694.868	-0.0041
695.193	-0.0071
695.517	-0.0059
695.841	-0.0063
696.166	-0.0078
696.49	-0.0082
696.814	-0.0048
697.138	-0.0015
697.462	-0.0031
697.786	-0.0063
698.11	-0.0067
698.434	-0.0038
698.758	-0.004
699.081	-0.0079
699.405	-0.0099
699.729	-0.0091
700.052	-0.0051
700.376	-0.0051
700.7	-0.0039
701.023	-0.0026
701.346	0.0019
701.67	-0.0003
701.993	-0.0049
702.316	-0.0063
702.639	-0.0055
702.963	-0.0053
703.286	-0.0088
703.609	-0.0095
703.932	-0.0125
704.255	-0.0085
704.578	-0.0058
704.9	0.0017
705.223	-0.0005
705.546	0.0011
705.868	0.002
706.191	-0.0012
706.514	-0.0053
706.836	-0.0076
707.159	-0.0052
707.481	-0.002
707.803	-0.0023
708.126	-0.0005
708.448	-0.0045
708.77	-0.0043
709.092	-0.005
709.414	-0.0026
709.736	-0.0028
710.058	-0.006
710.38	-0.0095
710.702	-0.0091
711.024	-0.0064
711.345	-0.0031
711.667	-0.0026
711.989	-0.0042
712.31	-0.0003
712.632	-0.0041
712.953	-0
713.275	-0.0022
713.596	0.0009
713.917	-0.0009
714.239	-0.0058
714.56	-0.008
714.881	-0.0082
715.202	-0.0062
715.523	-0.0034
715.844	-0.0051
716.165	-0.0075
716.486	-0.0129
716.807	-0.0121
717.128	-0.0097
717.448	-0.0088
717.769	-0.0079
718.09	-0.0017
718.41	0.0042
718.731	0.0059
719.051	0.0015
719.372	0.0026
719.692	0
720.012	0.0027
720.332	-0.0013
720.653	-0.0017
720.973	-0.0052
721.293	-0.0069
721.613	-0.0062
721.933	-0.0014
722.253	0.0008
722.573	-0.0004
722.892	-0.0064
723.212	-0.0071
723.532	-0.0101
723.851	-0.0084
724.171	-0.0053
724.491	-0.0059
724.81	-0.0085
725.129	-0.0081
725.449	-0.0025
725.768	-0.0018
726.087	-0.0071
726.407	-0.0064
726.726	-0.0041
727.045	-0.0023
727.364	-0.0048
727.683	-0.0027
728.002	0.0004
728.321	0.002
728.64	0.0013
728.958	0.0008
729.277	-0.0009
729.596	-0.0005
729.914	-0.0029
730.233	-0.0029
730.551	-0.0052
730.87	-0.0061
731.188	-0.0038
731.507	-0.0034
731.825	-0.0003
732.143	-0.0022
732.461	0.0005
732.779	0.0017
733.097	-0.0044
733.415	-0.0076
733.733	-0.0116
734.051	-0.0063
734.369	-0.0071
734.687	-0.0056
735.005	-0.0055
735.322	-0.0049
735.64	-0.0069
735.957	-0.0048
736.275	-0.001
736.592	0.0033
736.91	0.0024
737.227	-0.0014
737.544	-0.0049
737.862	-0.0026
738.179	-0.0009
738.496	0.0007
738.813	-0.0057
739.13	-0.0077
739.447	-0.0073
739.764	-0.0083
740.081	-0.0092
740.398	-0.0149
740.714	-0.0131
741.031	-0.0116
741.348	-0.0051
741.664	-0.0022
741.981	-0.0024
742.297	-0.0015
742.614	-0.0022
742.93	-0.0003
743.246	-0.0046
743.563	-0.0034
743.879	-0.0049
744.195	-0.0042
744.511	-0.0097
744.827	-0.0085
745.143	-0.0102
745.459	-0.0087
745.775	-0.0113
746.091	-0.0088
746.406	-0.0063
746.722	-0.0021
747.038	-0.001
747.353	-0.0002
747.669	-0.002
747.984	-0.0064
748.3	-0.0069
748.615	-0.0128
748.93	-0.0071
749.246	-0.0095
749.561	-0.0041
749.876	-0.0032
750.191	-0.0045
750.506	-0.0061
750.821	-0.0039
751.136	-0.0023
751.451	0.0002
751.766	-0.0095
752.08	-0.0123
752.395	-0.0137
752.71	-0.0111
753.024	-0.0092
753.339	-0.0038
753.653	-0.0027
753.968	0.0007
754.282	-0.0045
754.596	-0.0015
754.911	-0.004
755.225	0.0002
755.539	-0.0041
755.853	-0.0017
756.167	-0.0049
756.481	-0.0019
756.795	-0.0055
757.109	-0.0033
757.423	-0.0036
757.736	-0.0045
758.05	-0.0084
758.364	-0.0085
758.677	-0.009
758.991	-0.0081
759.304	-0.0075
759.618	-0.0058
759.931	-0.0066
760.244	-0.0068
760.558	-0.0041
760.871	-0.0073
761.184	-0.008
761.497	-0.0086
761.81	-0.0094
762.123	-0.0132
762.436	-0.0096
762.749	-0.0056
763.062	-0.0034
763.374	-0.0109
763.687	-0.0093
764	-0.0077
764.312	-0.0029
764.625	-0.0052
764.937	-0.0063
765.25	-0.0095
765.562	-0.0067
765.874	-0.006
766.186	-0.0079
766.499	-0.011
766.811	-0.0127
767.123	-0.0108
767.435	-0.0075
767.747	-0.0077
768.059	-0.0058
768.37	-0.0107
768.682	-0.0097
768.994	-0.0145
769.306	-0.0137
769.617	-0.0134
769.929	-0.007
770.24	-0.0044
770.552	-0.0105
770.863	-0.0154
771.174	-0.0121
771.486	-0.0105
771.797	-0.007
772.108	-0.0087
772.419	-0.0042
772.73	-0.0049
773.041	-0.0045
773.352	-0.0039
773.663	-0.0072
773.974	-0.007
774.285	-0.0078
774.595	-0.0064
774.906	-0.0062
775.217	-0.0073
775.527	-0.0087
775.838	-0.01
776.148	-0.0074
776.458	-0.0037
776.769	-0.0034
777.079	-0.0061
777.389	-0.0125
777.699	-0.0147
778.009	-0.0134
778.319	-0.0088
778.629	-0.0048
778.939	-0.0047
779.249	-0.0045
779.559	-0.0058
779.869	-0.0099
780.178	-0.0112
780.488	-0.0137
780.798	-0.0091
781.107	-0.0045
781.417	-0.0049
781.726	-0.008
782.035	-0.0119
782.345	-0.0099
782.654	-0.0117
782.963	-0.0089
783.272	-0.011
783.581	-0.0099
783.89	-0.0109
784.199	-0.007
784.508	-0.0094
784.817	-0.0132
785.126	-0.0152
785.434	-0.0119
785.743	-0.008
786.052	-0.009
786.36	-0.0099
786.669	-0.0105
786.977	-0.0127
787.285	-0.013
787.594	-0.0131
787.902	-0.0089
788.21	-0.0093
788.518	-0.0082
788.826	-0.0074
789.135	-0.0043
789.442	-0.0063
789.75	-0.0059
790.058	-0.0132
790.366	-0.0131
790.674	-0.0174
790.981	-0.0091
791.289	-0.0087
791.597	-0.0103
791.904	-0.0112
792.212	-0.0157
792.519	-0.0077
792.826	-0.0091
793.134	-0.0023
793.441	-0.0037
793.748	-0.0029
794.055	-0.002
794.362	-0.0049
794.669	-0.0072
794.976	-0.0086
795.283	-0.0096
795.59	-0.0084
795.897	-0.009
796.203	-0.0125
796.51	-0.0119
796.817	-0.0115
797.123	-0.0062
797.43	-0.0053
797.736	-0.0067
798.042	-0.0093
798.349	-0.0091
798.655	-0.0072
798.961	-0.0106
799.267	-0.0115
799.573	-0.0086
799.879	-0.0087
800.185	-0.0062
800.491	-0.0069
800.797	-0.0052
801.103	-0.0093
801.408	-0.0094
801.714	-0.0034
802.02	-0.0008
802.325	-0.0005
802.631	-0.0105
802.936	-0.0156
803.242	-0.0181
803.547	-0.0173
803.852	-0.0175
804.157	-0.0179
804.462	-0.0136
804.768	-0.0071
805.073	-0.0066
805.378	-0.0078
805.682	-0.0142
805.987	-0.0108
806.292	-0.0083
806.597	-0.001
806.902	-0.0069
807.206	-0.0075
807.511	-0.0136
807.815	-0.0152
808.12	-0.0141
808.424	-0.0142
808.728	-0.0084
809.033	-0.0095
809.337	-0.0126
809.641	-0.0181
809.945	-0.0186
810.249	-0.0136
810.553	-0.0037
810.857	-0.0028
811.161	-0.0044
811.465	-0.0087
811.768	-0.0143
812.072	-0.0167
812.376	-0.0183
812.679	-0.0133
812.983	-0.0099
813.286	-0.0072
813.59	-0.0066
813.893	-0.0016
814.196	-0.0025
814.499	-0.0004
814.803	-0.0066
815.106	-0.0141
815.409	-0.0141
815.712	-0.0124
816.015	-0.0115
816.318	-0.0194
816.62	-0.0167
816.923	-0.0138
817.226	-0.0112
817.528	-0.0102
817.831	-0.0127
818.133	-0.0036
818.436	-0.0048
818.738	0.003
819.041	-0.0058
819.343	-0.0035
819.645	-0.0057
819.947	-0.0034
820.249	-0.0118
820.551	-0.0183
820.853	-0.017
821.155	-0.0226
821.457	-0.0107
821.759	-0.0143
822.061	-0.0021
822.362	-0.0111
822.664	-0.0138
822.966	-0.0135
823.267	-0.0111
823.569	-0.0078
823.87	-0.0137
824.171	-0.0141
824.473	-0.0144
824.774	-0.0101
825.075	-0.013
825.376	-0.0089
825.677	-0.0112
825.978	-0.0079
826.279	-0.017
826.58	-0.0135
826.881	-0.018
827.181	-0.0131
827.482	-0.016
827.783	-0.017
828.083	-0.0241
828.384	-0.0208
828.684	-0.018
828.985	-0.0064
829.285	-0.0098
829.585	-0.0103
829.885	-0.0173
830.185	-0.0177
830.486	-0.011
830.786	-0.0033
831.086	0.0004
831.385	-0.0086
831.685	-0.0166
831.985	-0.0261
832.285	-0.0242
832.585	-0.0248
832.884	-0.0175
833.184	-0.0198
833.483	-0.0244
833.783	-0.0293
834.082	-0.0237
834.381	-0.0141
834.681	-0.0138
834.98	-0.0158
835.279	-0.0236
835.578	-0.0135
835.877	-0.0094
836.176	-0.0001
836.475	-0.0014
836.774	-0.0032
837.072	-0.0086
837.371	-0.0079
837.67	-0.0021
837.968	-0.0018
838.267	-0.0117
838.565	-0.0212
838.864	-0.0141
839.162	-0.0149
839.46	-0.0184
839.759	-0.0215
840.057	-0.0115
840.355	0.0001
840.653	-0.0104
840.951	-0.0129
841.249	-0.007
841.547	0.0119
841.845	0.0211
842.142	0.0143
842.44	-0.0038
842.738	-0.014
843.035	-0.0224
843.333	-0.0116
843.63	-0.0109
843.928	0.0015
844.225	0.0077
844.522	-0.0018
844.82	-0.008
845.117	-0.0162
845.414	-0.0125
845.711	-0.0073
846.008	-0.0142
846.305	-0.0231
846.602	-0.0367
846.898	-0.0311
847.195	-0.0249
847.492	-0.0192
847.788	-0.0208
848.085	-0.0062
848.382	-0.0052
848.678	-0.0067
848.974	-0.0147
849.271	-0.0088
849.567	-0.0054
849.863	-0.0106
850.159	-0.0195
850.455	-0.0176
850.751	-0.0142
851.047	-0.0122
851.343	-0.0208
851.639	-0.0198
851.935	-0.0232
852.23	-0.0201
852.526	-0.0155
852.822	-0.0167
853.117	-0.0054
853.413	-0.014
853.708	-0.0305
854.003	-0.0252
854.299	-0.0146
854.594	0.0058
854.889	-0.0179
855.184	-0.0201
855.479	-0.0117
855.774	0.0068
856.069	0.0074
856.364	-0.0038
856.659	-0.0074
856.954	0.0044
857.248	-0.0021
857.543	0.0098
857.837	-0.0046
858.132	0.0213
858.426	0.0052
858.721	-0.0028
859.015	-0.0296
859.309	-0.0296
859.604	-0.0161
859.898	0.0076
860.192	0.0063
860.486	-0.0019
860.78	-0.0176
861.074	-0.0115
861.367	0.0021
861.661	0.0078
861.955	-0.0028
862.248	-0.0098
862.542	-0.0212
862.836	-0.0139
863.129	-0.0249
863.422	-0.0185
863.716	-0.0228
864.009	-0.0082
864.302	-0.0064
864.595	-0.0159
864.889	-0.0387
865.182	-0.0379
865.475	-0.0319
865.767	-0.0203
866.06	-0.0149
866.353	0.0025
866.646	0.0145
866.938	0.0019
867.231	-0.0122
867.524	-0.0092
867.816	0.0187
868.109	0.0253
868.401	0.0007
868.693	-0.0246
868.985	-0.0368
869.278	-0.0321
869.57	-0.0362
869.862	-0.0427
870.154	-0.0362
870.446	-0.0288
870.738	-0.0264
871.029	-0.0514
871.321	-0.0346
871.613	-0.0088
871.904	0.0084
872.196	0.0026
872.487	-0.0192
872.779	-0.0041
873.07	-0.0124
873.362	-0.0025
873.653	-0.0092
873.944	-0.0314
874.235	-0.0273
874.526	-0.0363
874.817	-0.0177
875.108	-0.0267
875.399	-0.0169
875.69	-0.0083
875.981	-0.0116
876.271	-0.0181
876.562	-0.0152
876.853	-0.0137
877.143	-0.0215
877.434	-0.0222
877.724	-0.0374
878.014	-0.0002
878.305	-0.0353
878.595	-0.0026
878.885	-0.007
879.175	0.0076
879.465	0.0012
879.755	-0.0088
880.045	0.0258
880.335	0.0381
880.624	0.0558
880.914	0.0558
