Data from 20SS02LI_072217_1b_Absorbance_18-33-24-376.txt Node
Date: Fri Jul 28 18:33:24 MDT 2017
User: Tank Lab
Spectrometer: FLMS01220
Trigger mode: 0
Integration Time (sec): 1.000000E-1
Scans to average: 10
Electric dark correction enabled: true
Nonlinearity correction enabled: false
Boxcar width: 1
XAxis mode: Wavelengths
Number of Pixels in Spectrum: 2048
>>>>>Begin Spectral Data<<<<<
179.47	0.4905
179.856	0.4905
180.241	0.2545
180.626	-0
181.011	0.1051
181.396	-0.305
181.781	0.4711
182.166	-0.5301
182.551	0.1216
182.936	1.415
183.321	-0
183.706	0.9661
184.091	0.6551
184.476	0.3297
184.86	-0
185.245	-0.4131
185.63	0.1876
186.015	2.1016
186.399	-0
186.784	-0
187.169	-0
187.553	-0
187.938	-0
188.322	-0.052
188.707	0.0115
189.091	0.0527
189.475	0.0968
189.86	0.1236
190.244	0.1256
190.629	0.1339
191.013	0.1826
191.397	0.24
191.781	0.314
192.165	0.34
192.55	0.338
192.934	0.3309
193.318	0.34
193.702	0.3675
194.086	0.3765
194.47	0.3883
194.854	0.3919
195.238	0.3851
195.622	0.3795
196.006	0.3751
196.389	0.3731
196.773	0.3713
197.157	0.3777
197.541	0.3831
197.924	0.3732
198.308	0.3708
198.692	0.3705
199.075	0.3685
199.459	0.3651
199.843	0.3563
200.226	0.3577
200.61	0.3542
200.993	0.3542
201.376	0.3521
201.76	0.3412
202.143	0.3333
202.527	0.3263
202.91	0.3276
203.293	0.3256
203.676	0.3258
204.059	0.3293
204.443	0.3297
204.826	0.3244
205.209	0.3136
205.592	0.3137
205.975	0.3141
206.358	0.3184
206.741	0.3105
207.124	0.3114
207.507	0.3041
207.89	0.3049
208.273	0.2997
208.655	0.2979
209.038	0.2937
209.421	0.2913
209.804	0.291
210.186	0.2926
210.569	0.2932
210.951	0.2939
211.334	0.2909
211.717	0.2871
212.099	0.2813
212.482	0.2794
212.864	0.2773
213.246	0.2777
213.629	0.2758
214.011	0.2778
214.393	0.2764
214.776	0.275
215.158	0.271
215.54	0.2694
215.922	0.2676
216.305	0.2652
216.687	0.264
217.069	0.2623
217.451	0.262
217.833	0.2598
218.215	0.2581
218.597	0.2554
218.979	0.2539
219.361	0.2505
219.742	0.2472
220.124	0.2451
220.506	0.2444
220.888	0.2419
221.27	0.2388
221.651	0.2378
222.033	0.2397
222.415	0.2385
222.796	0.2366
223.178	0.2322
223.559	0.231
223.941	0.228
224.322	0.2262
224.704	0.2223
225.085	0.2217
225.466	0.2191
225.848	0.2178
226.229	0.2169
226.61	0.219
226.992	0.2203
227.373	0.2183
227.754	0.2155
228.135	0.2126
228.516	0.2107
228.897	0.208
229.278	0.2081
229.659	0.207
230.04	0.2054
230.421	0.2021
230.802	0.1996
231.183	0.1996
231.564	0.1993
231.944	0.1992
232.325	0.1986
232.706	0.1967
233.087	0.1952
233.467	0.1933
233.848	0.192
234.229	0.1924
234.609	0.1925
234.99	0.1915
235.37	0.1901
235.751	0.1884
236.131	0.1873
236.511	0.1879
236.892	0.1863
237.272	0.1858
237.652	0.1823
238.033	0.1813
238.413	0.1805
238.793	0.1799
239.173	0.1794
239.553	0.1785
239.933	0.1777
240.313	0.1776
240.694	0.175
241.074	0.1738
241.453	0.1732
241.833	0.1732
242.213	0.1726
242.593	0.1705
242.973	0.1718
243.353	0.1709
243.732	0.171
244.112	0.1688
244.492	0.168
244.872	0.1682
245.251	0.1678
245.631	0.1678
246.01	0.1656
246.39	0.1647
246.769	0.1642
247.149	0.1638
247.528	0.1633
247.908	0.1615
248.287	0.1616
248.666	0.1617
249.045	0.1614
249.425	0.1604
249.804	0.16
250.183	0.1608
250.562	0.1603
250.941	0.1598
251.32	0.1592
251.699	0.1585
252.078	0.1576
252.457	0.155
252.836	0.1549
253.215	0.1532
253.594	0.1535
253.973	0.1532
254.352	0.1526
254.731	0.1522
255.109	0.1501
255.488	0.1519
255.867	0.1516
256.245	0.1521
256.624	0.1508
257.002	0.1506
257.381	0.1503
257.759	0.1487
258.138	0.1469
258.516	0.1483
258.895	0.1484
259.273	0.1486
259.651	0.1453
260.03	0.1438
260.408	0.143
260.786	0.1429
261.164	0.1438
261.542	0.1435
261.921	0.1437
262.299	0.143
262.677	0.1434
263.055	0.1425
263.433	0.1422
263.811	0.1421
264.188	0.1416
264.566	0.1396
264.944	0.1381
265.322	0.1383
265.7	0.139
266.077	0.1376
266.455	0.1371
266.833	0.1375
267.21	0.1376
267.588	0.1369
267.966	0.1365
268.343	0.1378
268.721	0.1364
269.098	0.135
269.475	0.1344
269.853	0.1342
270.23	0.1336
270.607	0.1308
270.985	0.1303
271.362	0.1282
271.739	0.1282
272.116	0.1278
272.494	0.1294
272.871	0.1291
273.248	0.1282
273.625	0.1266
274.002	0.1254
274.379	0.1247
274.756	0.125
275.132	0.1244
275.509	0.124
275.886	0.1223
276.263	0.122
276.64	0.1218
277.016	0.1221
277.393	0.123
277.77	0.1213
278.146	0.1203
278.523	0.119
278.899	0.1184
279.276	0.1175
279.652	0.1175
280.029	0.1177
280.405	0.1166
280.782	0.1153
281.158	0.1154
281.534	0.1151
281.91	0.1151
282.287	0.1142
282.663	0.1147
283.039	0.1149
283.415	0.1135
283.791	0.1111
284.167	0.1083
284.543	0.1088
284.919	0.109
285.295	0.1098
285.671	0.1084
286.047	0.1095
286.423	0.1071
286.799	0.1084
287.174	0.1074
287.55	0.1084
287.926	0.1065
288.301	0.1067
288.677	0.1053
289.053	0.1047
289.428	0.1028
289.804	0.1032
290.179	0.1028
290.555	0.1031
290.93	0.1019
291.305	0.1013
291.681	0.1005
292.056	0.1019
292.431	0.1007
292.806	0.1002
293.182	0.0979
293.557	0.0983
293.932	0.0975
294.307	0.0967
294.682	0.0968
295.057	0.0974
295.432	0.0979
295.807	0.0968
296.182	0.0966
296.557	0.0963
296.932	0.0951
297.306	0.0939
297.681	0.0933
298.056	0.0941
298.43	0.0927
298.805	0.0909
299.18	0.0906
299.554	0.0907
299.929	0.0916
300.303	0.0902
300.678	0.088
301.052	0.0886
301.427	0.0883
301.801	0.0907
302.175	0.0883
302.55	0.0886
302.924	0.087
303.298	0.0868
303.672	0.0864
304.046	0.0859
304.421	0.0862
304.795	0.0864
305.169	0.0871
305.543	0.0853
305.917	0.0843
306.291	0.084
306.664	0.0864
307.038	0.085
307.412	0.0839
307.786	0.0808
308.16	0.0811
308.533	0.08
308.907	0.0816
309.281	0.0828
309.654	0.083
310.028	0.082
310.401	0.0805
310.775	0.0803
311.148	0.0813
311.522	0.0813
311.895	0.0809
312.268	0.0797
312.642	0.0785
313.015	0.0787
313.388	0.0768
313.761	0.0783
314.135	0.0776
314.508	0.0791
314.881	0.076
315.254	0.0746
315.627	0.073
316	0.0753
316.373	0.0752
316.746	0.0753
317.118	0.0734
317.491	0.0736
317.864	0.0743
318.237	0.0729
318.61	0.0725
318.982	0.0698
319.355	0.0696
319.727	0.0695
320.1	0.07
320.473	0.0694
320.845	0.0699
321.218	0.0689
321.59	0.0693
321.962	0.0679
322.335	0.068
322.707	0.0687
323.079	0.0684
323.452	0.0691
323.824	0.0696
324.196	0.0689
324.568	0.0677
324.94	0.0653
325.312	0.0664
325.684	0.0672
326.056	0.0672
326.428	0.066
326.8	0.0637
327.172	0.0644
327.544	0.0608
327.915	0.0597
328.287	0.0605
328.659	0.0631
329.031	0.0642
329.402	0.0629
329.774	0.0621
330.145	0.0609
330.517	0.0596
330.888	0.0581
331.26	0.0589
331.631	0.0591
332.003	0.0598
332.374	0.0585
332.745	0.0575
333.117	0.0568
333.488	0.0566
333.859	0.0564
334.23	0.0566
334.601	0.0577
334.972	0.0592
335.343	0.0585
335.714	0.0584
336.085	0.0555
336.456	0.0558
336.827	0.055
337.198	0.0572
337.569	0.0556
337.94	0.0548
338.31	0.053
338.681	0.0535
339.052	0.0536
339.422	0.0551
339.793	0.0547
340.164	0.0545
340.534	0.0533
340.905	0.0525
341.275	0.0527
341.645	0.0521
342.016	0.0539
342.386	0.053
342.756	0.0538
343.127	0.0518
343.497	0.0512
343.867	0.0506
344.237	0.0512
344.607	0.0503
344.977	0.0502
345.347	0.0518
345.717	0.0523
346.087	0.0516
346.457	0.0518
346.827	0.0519
347.197	0.0526
347.567	0.0497
347.936	0.0492
348.306	0.0496
348.676	0.0508
349.046	0.0502
349.415	0.0488
349.785	0.051
350.154	0.0517
350.524	0.0501
350.893	0.0466
351.263	0.0466
351.632	0.0471
352.001	0.0471
352.371	0.0464
352.74	0.0467
353.109	0.0475
353.478	0.0477
353.847	0.0478
354.217	0.0474
354.586	0.0469
354.955	0.0464
355.324	0.0442
355.693	0.045
356.062	0.0464
356.43	0.0489
356.799	0.0475
357.168	0.0456
357.537	0.0444
357.906	0.0438
358.274	0.0427
358.643	0.0413
359.011	0.0414
359.38	0.0425
359.749	0.0427
360.117	0.0417
360.486	0.042
360.854	0.0417
361.222	0.0423
361.591	0.0417
361.959	0.0415
362.327	0.0418
362.695	0.0407
363.064	0.0422
363.432	0.0417
363.8	0.0416
364.168	0.0407
364.536	0.0407
364.904	0.0402
365.272	0.0394
365.64	0.0392
366.008	0.0407
366.376	0.0408
366.743	0.0399
367.111	0.0391
367.479	0.0382
367.847	0.0379
368.214	0.0382
368.582	0.0386
368.949	0.0413
369.317	0.0392
369.684	0.0368
370.052	0.0338
370.419	0.0352
370.787	0.0372
371.154	0.0382
371.521	0.0393
371.889	0.0392
372.256	0.0378
372.623	0.0354
372.99	0.0329
373.357	0.0339
373.724	0.0356
374.091	0.0382
374.458	0.0384
374.825	0.0381
375.192	0.0365
375.559	0.037
375.926	0.0346
376.293	0.035
376.659	0.0331
377.026	0.0333
377.393	0.0348
377.759	0.0343
378.126	0.0351
378.492	0.0348
378.859	0.0361
379.225	0.0341
379.592	0.0322
379.958	0.0311
380.325	0.0326
380.691	0.0337
381.057	0.0333
381.423	0.0324
381.79	0.0324
382.156	0.0319
382.522	0.0331
382.888	0.032
383.254	0.0318
383.62	0.0317
383.986	0.0336
384.352	0.0343
384.718	0.0341
385.084	0.0328
385.449	0.0312
385.815	0.0317
386.181	0.0308
386.547	0.0336
386.912	0.0309
387.278	0.0308
387.643	0.0273
388.009	0.0292
388.374	0.0283
388.74	0.0307
389.105	0.0303
389.471	0.0303
389.836	0.0307
390.201	0.0312
390.566	0.0323
390.932	0.0316
391.297	0.0301
391.662	0.0306
392.027	0.0293
392.392	0.0294
392.757	0.0286
393.122	0.0301
393.487	0.03
393.852	0.0298
394.217	0.0289
394.582	0.0315
394.946	0.0304
395.311	0.0293
395.676	0.0274
396.04	0.0288
396.405	0.0304
396.77	0.0296
397.134	0.027
397.499	0.0261
397.863	0.0264
398.227	0.0294
398.592	0.0268
398.956	0.0263
399.32	0.0241
399.685	0.0261
400.049	0.0276
400.413	0.0276
400.777	0.026
401.141	0.0255
401.505	0.0244
401.869	0.0237
402.233	0.0222
402.597	0.0227
402.961	0.0253
403.325	0.0271
403.689	0.0281
404.053	0.0285
404.416	0.0271
404.78	0.0254
405.144	0.0254
405.507	0.027
405.871	0.0282
406.234	0.0279
406.598	0.0267
406.961	0.0254
407.325	0.0257
407.688	0.0236
408.051	0.0245
408.415	0.0227
408.778	0.0249
409.141	0.0246
409.504	0.0267
409.867	0.0239
410.23	0.0249
410.593	0.023
410.956	0.0237
411.319	0.0241
411.682	0.0224
412.045	0.0226
412.408	0.02
412.771	0.0238
413.134	0.0242
413.496	0.0241
413.859	0.0237
414.222	0.025
414.584	0.0283
414.947	0.0265
415.309	0.025
415.672	0.0255
416.034	0.0262
416.396	0.0252
416.759	0.0227
417.121	0.023
417.483	0.0235
417.846	0.0233
418.208	0.0225
418.57	0.0246
418.932	0.0207
419.294	0.0213
419.656	0.0195
420.018	0.0235
420.38	0.0219
420.742	0.0205
421.104	0.0193
421.466	0.019
421.827	0.0189
422.189	0.017
422.551	0.0185
422.912	0.0206
423.274	0.0234
423.636	0.0243
423.997	0.0234
424.359	0.0223
424.72	0.0213
425.081	0.0217
425.443	0.0215
425.804	0.0214
426.165	0.0235
426.527	0.0237
426.888	0.0226
427.249	0.0212
427.61	0.0219
427.971	0.0208
428.332	0.0194
428.693	0.0194
429.054	0.0211
429.415	0.0218
429.776	0.0197
430.137	0.0186
430.498	0.0189
430.858	0.0213
431.219	0.0226
431.58	0.0239
431.94	0.0241
432.301	0.0218
432.661	0.0176
433.022	0.0178
433.382	0.0208
433.743	0.025
434.103	0.0242
434.463	0.0202
434.824	0.0166
435.184	0.0158
435.544	0.0187
435.904	0.0214
436.264	0.0214
436.624	0.0215
436.985	0.0191
437.345	0.0209
437.704	0.0199
438.064	0.0202
438.424	0.0186
438.784	0.0182
439.144	0.0185
439.504	0.0184
439.863	0.0184
440.223	0.0188
440.583	0.0167
440.942	0.0167
441.302	0.0181
441.661	0.0188
442.021	0.0201
442.38	0.0182
442.739	0.0198
443.099	0.0175
443.458	0.0194
443.817	0.0195
444.176	0.021
444.536	0.0183
444.895	0.0175
445.254	0.016
445.613	0.0181
445.972	0.0188
446.331	0.0181
446.69	0.016
447.049	0.0135
447.407	0.0148
447.766	0.016
448.125	0.0185
448.484	0.02
448.842	0.02
449.201	0.0196
449.559	0.0197
449.918	0.02
450.276	0.019
450.635	0.0191
450.993	0.0173
451.352	0.0179
451.71	0.0169
452.068	0.0182
452.426	0.0179
452.785	0.0194
453.143	0.0172
453.501	0.018
453.859	0.0144
454.217	0.0172
454.575	0.0146
454.933	0.0144
455.291	0.0163
455.649	0.0173
456.006	0.0176
456.364	0.0157
456.722	0.0178
457.079	0.0177
457.437	0.017
457.795	0.0169
458.152	0.0187
458.51	0.0183
458.867	0.018
459.225	0.019
459.582	0.0191
459.939	0.0177
460.297	0.0165
460.654	0.018
461.011	0.0205
461.368	0.0201
461.725	0.0181
462.082	0.0174
462.44	0.0158
462.797	0.017
463.153	0.0157
463.51	0.0159
463.867	0.016
464.224	0.0168
464.581	0.0196
464.938	0.019
465.294	0.0185
465.651	0.0178
466.008	0.0153
466.364	0.0167
466.721	0.0142
467.077	0.0164
467.434	0.0138
467.79	0.0165
468.146	0.0152
468.503	0.0154
468.859	0.0142
469.215	0.0137
469.571	0.0137
469.927	0.0152
470.284	0.0172
470.64	0.0166
470.996	0.0149
471.352	0.0138
471.707	0.0138
472.063	0.0153
472.419	0.0164
472.775	0.0185
473.131	0.0182
473.486	0.0177
473.842	0.0162
474.198	0.015
474.553	0.0146
474.909	0.0163
475.264	0.0179
475.62	0.0196
475.975	0.0171
476.331	0.0155
476.686	0.0162
477.041	0.0167
477.396	0.0149
477.752	0.0147
478.107	0.0156
478.462	0.0167
478.817	0.0149
479.172	0.0148
479.527	0.0156
479.882	0.015
480.237	0.0134
480.591	0.0143
480.946	0.0146
481.301	0.0165
481.656	0.0168
482.01	0.0169
482.365	0.0166
482.72	0.0155
483.074	0.0148
483.429	0.0139
483.783	0.0139
484.137	0.0138
484.492	0.0142
484.846	0.0137
485.2	0.0153
485.555	0.0159
485.909	0.0142
486.263	0.0126
486.617	0.0117
486.971	0.0116
487.325	0.0124
487.679	0.0116
488.033	0.0134
488.387	0.014
488.741	0.0153
489.094	0.014
489.448	0.0122
489.802	0.0135
490.156	0.0136
490.509	0.0141
490.863	0.0132
491.216	0.0132
491.57	0.0142
491.923	0.0139
492.277	0.0141
492.63	0.0134
492.983	0.0128
493.337	0.0135
493.69	0.0139
494.043	0.0135
494.396	0.0127
494.749	0.0105
495.102	0.0088
495.455	0.0098
495.808	0.0119
496.161	0.0119
496.514	0.0122
496.867	0.0123
497.22	0.0133
497.572	0.0119
497.925	0.0123
498.278	0.0109
498.63	0.0109
498.983	0.0093
499.335	0.0112
499.688	0.0117
500.04	0.011
500.393	0.0093
500.745	0.0078
501.097	0.0076
501.449	0.0099
501.802	0.0103
502.154	0.0123
502.506	0.0106
502.858	0.0096
503.21	0.0096
503.562	0.0095
503.914	0.0106
504.266	0.0114
504.618	0.0129
504.969	0.0146
505.321	0.0133
505.673	0.0115
506.025	0.0109
506.376	0.0102
506.728	0.0119
507.079	0.0118
507.431	0.0125
507.782	0.013
508.134	0.0123
508.485	0.0137
508.836	0.0124
509.188	0.0116
509.539	0.0095
509.89	0.0118
510.241	0.0112
510.592	0.0103
510.943	0.008
511.294	0.0111
511.645	0.0113
511.996	0.0113
512.347	0.0071
512.698	0.0069
513.049	0.0084
513.399	0.0114
513.75	0.0123
514.101	0.0091
514.451	0.0098
514.802	0.0095
515.152	0.01
515.503	0.011
515.853	0.0136
516.203	0.0137
516.554	0.0105
516.904	0.009
517.254	0.0091
517.604	0.01
517.955	0.01
518.305	0.0072
518.655	0.006
519.005	0.0044
519.355	0.0076
519.705	0.0072
520.055	0.0064
520.404	0.0052
520.754	0.0049
521.104	0.008
521.454	0.0097
521.803	0.0108
522.153	0.0104
522.502	0.01
522.852	0.0114
523.201	0.0093
523.551	0.0085
523.9	0.0056
524.249	0.0067
524.599	0.0072
524.948	0.0084
525.297	0.0083
525.646	0.0071
525.995	0.0074
526.344	0.0082
526.694	0.0081
527.042	0.0065
527.391	0.0056
527.74	0.0071
528.089	0.0076
528.438	0.0085
528.787	0.0063
529.135	0.0063
529.484	0.0057
529.833	0.0094
530.181	0.0082
530.53	0.0085
530.878	0.0052
531.227	0.0083
531.575	0.0082
531.923	0.0077
532.271	0.0051
532.62	0.0057
532.968	0.0062
533.316	0.0069
533.664	0.0069
534.012	0.008
534.36	0.0089
534.708	0.0066
535.056	0.0064
535.404	0.0077
535.752	0.0096
536.1	0.0076
536.447	0.0068
536.795	0.0053
537.143	0.0067
537.49	0.0064
537.838	0.0054
538.185	0.0054
538.533	0.0061
538.88	0.0077
539.228	0.0082
539.575	0.0085
539.922	0.0087
540.269	0.009
540.617	0.0072
540.964	0.0039
541.311	0.0036
541.658	0.004
542.005	0.0062
542.352	0.0068
542.699	0.0056
543.045	0.0062
543.392	0.0053
543.739	0.0072
544.086	0.0042
544.432	0.0034
544.779	0.0017
545.126	0.0047
545.472	0.0058
545.819	0.0062
546.165	0.0033
546.512	0.0017
546.858	0.0023
547.204	0.0048
547.55	0.0076
547.897	0.0077
548.243	0.0076
548.589	0.0071
548.935	0.007
549.281	0.007
549.627	0.0062
549.973	0.0048
550.319	0.0031
550.665	0.003
551.01	0.0043
551.356	0.0067
551.702	0.0057
552.048	0.0071
552.393	0.007
552.739	0.0082
553.084	0.0054
553.43	0.006
553.775	0.0052
554.12	0.0056
554.466	0.003
554.811	0.001
555.156	0.0004
555.502	-0.0008
555.847	0.0017
556.192	0.0044
556.537	0.0047
556.882	0.0046
557.227	0.0018
557.572	0.0026
557.917	0.004
558.261	0.0043
558.606	0.0076
558.951	0.0034
559.295	0.003
559.64	0.0006
559.985	0.0051
560.329	0.0032
560.674	0.0033
561.018	0.0042
561.363	0.0052
561.707	0.0067
562.051	0.005
562.395	0.0063
562.74	0.0068
563.084	0.007
563.428	0.008
563.772	0.0051
564.116	0.003
564.46	0.0007
564.804	-0.0001
565.148	-0.0001
565.492	0.0023
565.835	0.004
566.179	0.0057
566.523	0.0056
566.866	0.0051
567.21	0.0033
567.554	0.0052
567.897	0.0074
568.24	0.0083
568.584	0.0068
568.927	0.0066
569.271	0.0069
569.614	0.0068
569.957	0.0059
570.3	0.0041
570.643	0.0025
570.986	0.0018
571.329	0.0047
571.672	0.0076
572.015	0.0065
572.358	0.0081
572.701	0.0061
573.044	0.0044
573.387	0.0008
573.729	0.0013
574.072	0.0041
574.414	0.0028
574.757	0.002
575.099	-0.0003
575.442	-0.0001
575.784	0.0011
576.127	0.0027
576.469	0.003
576.811	0.0027
577.153	0.0021
577.496	0.0018
577.838	0.0009
578.18	-0.001
578.522	-0.0008
578.864	-0.0018
579.206	0.0012
579.548	-0.0004
579.889	-0.0012
580.231	-0.0011
580.573	0.0002
580.915	-0.0007
581.256	-0.0024
581.598	-0.002
581.939	-0.0011
582.281	0.0008
582.622	0.0012
582.964	0.0039
583.305	0.0043
583.646	0.0057
583.988	0.0047
584.329	0.0039
584.67	0.0013
585.011	-0.0002
585.352	-0.0006
585.693	0.0006
586.034	0.0001
586.375	-0.001
586.716	-0.0008
587.057	0.002
587.398	0.0001
587.738	0.0021
588.079	0.0011
588.42	0.004
588.76	0.0026
589.101	0.0038
589.441	0.0023
589.782	0.0025
590.122	0.0009
590.463	0.0008
590.803	0.0005
591.143	0.0025
591.483	0.0003
591.823	0.0001
592.164	-0.0029
592.504	-0.0033
592.844	-0.0047
593.184	-0.0019
593.523	0.0007
593.863	0.0035
594.203	-0.0003
594.543	-0
594.883	-0.0015
595.222	-0.0004
595.562	0.0007
595.901	0.0015
596.241	0.0005
596.58	0.0012
596.92	0.0004
597.259	0.0012
597.599	0.0022
597.938	0.0011
598.277	0.0039
598.616	-0.0003
598.955	0.0002
599.295	-0.0027
599.634	-0.0027
599.973	-0.0034
600.312	-0.0015
600.65	0.0005
600.989	0.0027
601.328	0.005
601.667	0.0049
602.005	0.0025
602.344	-0.0008
602.683	-0.0025
603.021	-0.0031
603.36	-0.0033
603.698	-0.0023
604.037	-0.001
604.375	0.0016
604.713	0.0014
605.052	0.001
605.39	-0.0012
605.728	-0.0008
606.066	-0.0007
606.404	-0.003
606.742	-0.0061
607.08	-0.0051
607.418	-0.0041
607.756	-0.0014
608.094	-0.0028
608.431	-0.0015
608.769	0.0007
609.107	-0.0001
609.444	-0.0012
609.782	-0.0037
610.12	-0.0005
610.457	-0.0005
610.794	0.0002
611.132	-0.0003
611.469	-0.0002
611.806	0.0003
612.144	0.0003
612.481	0.0009
612.818	0.0005
613.155	0.0023
613.492	0.0054
613.829	0.0051
614.166	0.0007
614.503	-0.0005
614.84	-0.0018
615.176	0.0004
615.513	-0.001
615.85	-0.0012
616.187	0.0009
616.523	0.0016
616.86	0.0003
617.196	-0.0011
617.533	-0.0013
617.869	0.0031
618.205	0.0025
618.542	0.0026
618.878	-0.0011
619.214	-0.0032
619.55	-0.0066
619.886	-0.005
620.222	-0.0047
620.558	-0.0011
620.894	0.0001
621.23	0.0016
621.566	-0.0006
621.902	-0.0002
622.238	-0.0033
622.573	0.0001
622.909	-0.0017
623.244	0.0003
623.58	-0.0023
623.916	-0.0047
624.251	-0.0023
624.586	-0.0034
624.922	-0.0017
625.257	-0.001
625.592	0.003
625.927	0.0055
626.263	0.0031
626.598	-0.0007
626.933	0.0003
627.268	0.0015
627.603	0.0013
627.938	-0.0021
628.272	-0.0039
628.607	-0.004
628.942	-0.0036
629.277	-0.0005
629.611	-0.0001
629.946	0.0016
630.281	-0.0006
630.615	0.0012
630.949	0.0033
631.284	0.0037
631.618	0.0034
631.953	0.0024
632.287	0.003
632.621	0.0013
632.955	-0.0023
633.289	-0.0013
633.623	0.0027
633.957	0.0061
634.291	0.001
634.625	-0.0016
634.959	-0.0059
635.293	-0.0007
635.627	-0.0048
635.96	0.0001
636.294	-0.0044
636.627	-0.0007
636.961	-0.0028
637.294	-0.0026
637.628	-0.0036
637.961	-0.0049
638.295	-0.0049
638.628	-0.0081
638.961	-0.0099
639.294	-0.0056
639.628	0.0011
639.961	0.0028
640.294	0.0028
640.627	0.0003
640.96	-0.0025
641.293	-0.0078
641.625	-0.0117
641.958	-0.0059
642.291	0.0013
642.624	0.006
642.956	0.0035
643.289	-0.0006
643.621	-0.005
643.954	-0.0075
644.286	-0.0117
644.619	-0.0083
644.951	-0.0075
645.283	-0.0048
645.616	-0.0088
645.948	-0.0069
646.28	-0.0048
646.612	-0.0016
646.944	-0.0018
647.276	-0.0043
647.608	-0.0069
647.94	-0.0055
648.272	0.0007
648.603	0.0033
648.935	0.0068
649.267	0.0036
649.598	0.004
649.93	-0.0016
650.261	-0.004
650.593	-0.0011
650.924	0.0016
651.256	0.0049
651.587	0.0051
651.918	0.0056
652.25	0.0026
652.581	-0.0017
652.912	-0.0064
653.243	-0.0059
653.574	-0.0055
653.905	-0.0086
654.236	-0.0092
654.567	-0.0078
654.897	-0.0045
655.228	-0.002
655.559	-0.0028
655.89	0.0001
656.22	-0.0003
656.551	0.0005
656.881	0.001
657.212	-0.0009
657.542	-0.0019
657.872	-0.0023
658.203	0.0001
658.533	-0.0003
658.863	-0.0052
659.193	-0.0062
659.523	-0.0064
659.853	-0.007
660.183	-0.009
660.513	-0.0074
660.843	0.0005
661.173	0.0021
661.503	-0.0034
661.833	-0.0063
662.162	-0.0075
662.492	-0.0021
662.822	-0.0037
663.151	-0.0029
663.481	-0.0053
663.81	-0.0085
664.139	-0.0035
664.469	-0.0026
664.798	0.0025
665.127	-0.0016
665.456	-0.0003
665.785	0.0024
666.114	0.0019
666.443	-0.0015
666.772	-0.0041
667.101	-0.0058
667.43	-0.0057
667.759	-0.0044
668.088	-0.0019
668.416	-0.001
668.745	-0.0001
669.074	-0.0068
669.402	-0.013
669.731	-0.0155
670.059	-0.0098
670.388	0.0006
670.716	0.0016
671.044	0.0051
671.372	0.0027
671.701	0.002
672.029	0.0023
672.357	0.0002
672.685	0.0005
673.013	-0.005
673.341	-0.0027
673.669	-0.0048
673.996	-0.0018
674.324	-0.0037
674.652	-0.003
674.98	-0.0029
675.307	-0.005
675.635	-0.0077
675.962	-0.0081
676.29	-0.0079
676.617	-0.0056
676.945	-0.0075
677.272	-0.0052
677.599	-0.0036
677.926	-0.0035
678.253	-0.0007
678.581	-0.0029
678.908	-0.004
679.235	-0.0055
679.561	-0.0033
679.888	-0
680.215	-0.0035
680.542	-0.003
680.869	-0.0051
681.195	-0.0018
681.522	-0.0052
681.849	-0.0046
682.175	-0.006
682.502	-0.0061
682.828	-0.0069
683.154	-0.0087
683.481	-0.0081
683.807	-0.0077
684.133	-0.0065
684.459	-0.0036
684.785	-0.005
685.111	-0.0082
685.437	-0.0111
685.763	-0.0106
686.089	-0.0099
686.415	-0.011
686.741	-0.0101
687.067	-0.0064
687.392	-0.0085
687.718	-0.0061
688.043	-0.0039
688.369	0.0007
688.694	0.0027
689.02	-0.0022
689.345	0.0027
689.67	-0.005
689.996	-0.0057
690.321	-0.0094
690.646	-0.0069
690.971	-0.0081
691.296	-0.0103
691.621	-0.0106
691.946	-0.003
692.271	-0.003
692.596	0.001
692.921	0.0016
693.245	0.0047
693.57	0.0028
693.895	0.0018
694.219	-0.0007
694.544	-0.002
694.868	-0.0048
695.193	-0.0064
695.517	-0.0066
695.841	-0.0069
696.166	-0.0095
696.49	-0.0098
696.814	-0.007
697.138	-0.0054
697.462	-0.0076
697.786	-0.0064
698.11	-0.0043
698.434	-0.0019
698.758	-0.0052
699.081	-0.0093
699.405	-0.0097
699.729	-0.0059
700.052	-0.0066
700.376	-0.0034
700.7	-0.0064
701.023	-0.0057
701.346	-0.0089
701.67	-0.0074
701.993	-0.0044
702.316	-0.001
702.639	-0.0022
702.963	-0.0069
703.286	-0.0115
703.609	-0.0149
703.932	-0.0126
704.255	-0.0093
704.578	-0.0052
704.9	-0.0022
705.223	-0.0032
705.546	-0.0042
705.868	-0.0041
706.191	-0.007
706.514	-0.0073
706.836	-0.0076
707.159	-0.0055
707.481	-0.0059
707.803	-0.0115
708.126	-0.0115
708.448	-0.0144
708.77	-0.0087
709.092	-0.0095
709.414	-0.0046
709.736	-0.0034
710.058	-0.0059
710.38	-0.0096
710.702	-0.0111
711.024	-0.0091
711.345	-0.0053
711.667	-0.0046
711.989	-0.0058
712.31	-0.0033
712.632	-0.0058
712.953	-0.0024
713.275	-0.0078
713.596	-0.0037
713.917	-0.0054
714.239	-0.0083
714.56	-0.0103
714.881	-0.0098
715.202	-0.0092
715.523	-0.0073
715.844	-0.0076
716.165	-0.007
716.486	-0.008
716.807	-0.0093
717.128	-0.0075
717.448	-0.0107
717.769	-0.0088
718.09	-0.0078
718.41	-0.0028
718.731	-0.0003
719.051	0.002
719.372	0.0011
719.692	-0.0022
720.012	-0.0018
720.332	-0.0024
720.653	-0.0039
720.973	-0.0084
721.293	-0.0094
721.613	-0.0076
721.933	-0.0034
722.253	0.0011
722.573	0.0006
722.892	-0.0042
723.212	-0.0128
723.532	-0.0115
723.851	-0.0101
724.171	-0.0073
724.491	-0.0158
724.81	-0.0148
725.129	-0.0099
725.449	-0.0034
725.768	-0.006
726.087	-0.0104
726.407	-0.0061
726.726	-0.0036
727.045	0.0007
727.364	-0.003
727.683	-0.0003
728.002	-0.0016
728.321	0.0005
728.64	0.0013
728.958	-0.0004
729.277	-0.0055
729.596	-0.0103
729.914	-0.0074
730.233	-0.0029
730.551	-0.0004
730.87	-0.0051
731.188	-0.0032
731.507	-0.0034
731.825	-0.002
732.143	-0.0083
732.461	-0.0083
732.779	-0.0065
733.097	-0.0073
733.415	-0.0104
733.733	-0.0118
734.051	-0.0073
734.369	-0.0048
734.687	-0.0055
735.005	-0.0075
735.322	-0.008
735.64	-0.0093
735.957	-0.0057
736.275	-0.0043
736.592	-0.0008
736.91	-0.0047
737.227	-0.0058
737.544	-0.0093
737.862	-0.004
738.179	-0.0069
738.496	-0.0038
738.813	-0.0113
739.13	-0.011
739.447	-0.0114
739.764	-0.0099
740.081	-0.0094
740.398	-0.0104
740.714	-0.0077
741.031	-0.0058
741.348	-0.0061
741.664	-0.0085
741.981	-0.0108
742.297	-0.0074
742.614	-0.0072
742.93	-0.0102
743.246	-0.0116
743.563	-0.0176
743.879	-0.0173
744.195	-0.0195
744.511	-0.0178
744.827	-0.0085
745.143	-0.0124
745.459	-0.0117
745.775	-0.0174
746.091	-0.0179
746.406	-0.0137
746.722	-0.0115
747.038	-0.0078
747.353	-0.0071
747.669	-0.0107
747.984	-0.0118
748.3	-0.0122
748.615	-0.014
748.93	-0.0123
749.246	-0.0124
749.561	-0.0098
749.876	-0.0089
750.191	-0.012
750.506	-0.015
750.821	-0.0184
751.136	-0.0168
751.451	-0.0106
751.766	-0.008
752.08	-0.0079
752.395	-0.0092
752.71	-0.0143
753.024	-0.0106
753.339	-0.0103
753.653	-0.0052
753.968	-0.0088
754.282	-0.0112
754.596	-0.0087
754.911	-0.0083
755.225	-0.0021
755.539	-0.0071
755.853	-0.0031
756.167	-0.0059
756.481	-0.0067
756.795	-0.0122
757.109	-0.0082
757.423	-0.0039
757.736	-0.0015
758.05	-0.0083
758.364	-0.0063
758.677	-0.0095
758.991	-0.0057
759.304	-0.0084
759.618	-0.0041
759.931	-0.01
760.244	-0.0105
760.558	-0.0112
760.871	-0.0108
761.184	-0.011
761.497	-0.0113
761.81	-0.0094
762.123	-0.0127
762.436	-0.018
762.749	-0.0183
763.062	-0.0119
763.374	-0.008
763.687	-0.0058
764	-0.0102
764.312	-0.0082
764.625	-0.008
764.937	-0.0085
765.25	-0.0116
765.562	-0.0124
765.874	-0.0129
766.186	-0.0133
766.499	-0.0136
766.811	-0.0134
767.123	-0.0154
767.435	-0.0174
767.747	-0.0142
768.059	-0.0106
768.37	-0.0121
768.682	-0.0134
768.994	-0.0188
769.306	-0.0167
769.617	-0.0124
769.929	-0.0024
770.24	0.0012
770.552	-0.0081
770.863	-0.0156
771.174	-0.0131
771.486	-0.0106
771.797	-0.0095
772.108	-0.0154
772.419	-0.0094
772.73	-0.01
773.041	-0.0058
773.352	-0.0096
773.663	-0.0058
773.974	-0.0037
774.285	-0.0041
774.595	-0.0081
774.906	-0.0094
775.217	-0.0093
775.527	-0.0054
775.838	-0.0057
776.148	-0.0049
776.458	-0.0049
776.769	-0.0058
777.079	-0.0086
777.389	-0.0159
777.699	-0.0166
778.009	-0.0178
778.319	-0.0115
778.629	-0.0078
778.939	-0.0057
779.249	-0.0033
779.559	-0.0064
779.869	-0.0069
780.178	-0.0094
780.488	-0.0089
780.798	-0.0092
781.107	-0.0076
781.417	-0.013
781.726	-0.0127
782.035	-0.0171
782.345	-0.0089
782.654	-0.0093
782.963	-0.0076
783.272	-0.0153
783.581	-0.0127
783.89	-0.0123
784.199	-0.0083
784.508	-0.0133
784.817	-0.0167
785.126	-0.0199
785.434	-0.0141
785.743	-0.0074
786.052	-0.0032
786.36	-0.0084
786.669	-0.0104
786.977	-0.0103
787.285	-0.0095
787.594	-0.0128
787.902	-0.013
788.21	-0.0123
788.518	-0.0035
788.826	-0.006
789.135	-0.0015
789.442	-0.0127
789.75	-0.0122
790.058	-0.0177
790.366	-0.0118
790.674	-0.013
790.981	-0.0093
791.289	-0.0091
791.597	-0.0091
791.904	-0.0135
792.212	-0.0187
792.519	-0.02
792.826	-0.0154
793.134	-0.0107
793.441	-0.0059
793.748	-0.0027
794.055	-0.0002
794.362	-0.0066
794.669	-0.0112
794.976	-0.0134
795.283	-0.008
795.59	-0.0028
795.897	0.0004
796.203	-0.0047
796.51	-0.01
796.817	-0.0113
797.123	-0.0067
797.43	-0.0021
797.736	-0.0037
798.042	-0.0085
798.349	-0.0098
798.655	-0.0075
798.961	-0.0033
799.267	-0.0089
799.573	-0.0097
799.879	-0.0151
800.185	-0.0126
800.491	-0.0105
800.797	-0.0069
801.103	-0.0065
801.408	-0.0085
801.714	-0.0092
802.02	-0.0078
802.325	-0.006
802.631	-0.0123
802.936	-0.0195
803.242	-0.0226
803.547	-0.016
803.852	-0.0124
804.157	-0.0153
804.462	-0.0177
804.768	-0.0156
805.073	-0.0095
805.378	-0.0038
805.682	0.0001
805.987	-0.0021
806.292	-0.0045
806.597	-0.0061
806.902	-0.0113
807.206	-0.0111
807.511	-0.0186
807.815	-0.0139
808.12	-0.0149
808.424	-0.0047
808.728	-0.0075
809.033	-0.006
809.337	-0.0093
809.641	-0.005
809.945	-0.0113
810.249	-0.0124
810.553	-0.0112
810.857	-0.0039
811.161	-0.0041
811.465	-0.0065
811.768	-0.014
812.072	-0.0207
812.376	-0.0213
812.679	-0.0174
812.983	-0.0058
813.286	-0.0074
813.59	-0.0077
813.893	-0.0123
814.196	-0.0113
814.499	-0.0106
814.803	-0.0119
815.106	-0.0141
815.409	-0.0105
815.712	-0.0094
816.015	-0.0064
816.318	-0.0101
816.62	-0.0103
816.923	-0.0101
817.226	-0.0129
817.528	-0.0129
817.831	-0.0158
818.133	-0.0139
818.436	-0.0184
818.738	-0.0123
819.041	-0.0116
819.343	-0.0019
819.645	-0.0071
819.947	0.001
820.249	-0.0035
820.551	-0.0025
820.853	-0.0047
821.155	-0.0109
821.457	-0.0061
821.759	-0.018
822.061	-0.0108
822.362	-0.017
822.664	-0.0101
822.966	-0.0102
823.267	-0.0124
823.569	-0.0155
823.87	-0.023
824.171	-0.0196
824.473	-0.0191
824.774	-0.0058
825.075	-0.009
825.376	0.0002
825.677	-0.0013
825.978	0.0024
826.279	-0.007
826.58	-0.0098
826.881	-0.0164
827.181	-0.0091
827.482	-0.014
827.783	-0.0105
828.083	-0.0191
828.384	-0.0255
828.684	-0.0273
828.985	-0.0206
829.285	-0.0137
829.585	-0.0094
829.885	-0.0165
830.185	-0.0229
830.486	-0.0177
830.786	-0.0087
831.086	0.0061
831.385	-0.0008
831.685	-0.0066
831.985	-0.0171
832.285	-0.0143
832.585	-0.0143
832.884	-0.0082
833.184	-0.0148
833.483	-0.0137
833.783	-0.0164
834.082	-0.0119
834.381	-0.016
834.681	-0.0218
834.98	-0.0158
835.279	-0.0148
835.578	-0.007
835.877	-0.0104
836.176	0.0014
836.475	0.0098
836.774	0.0134
837.072	0.0006
837.371	0.0008
837.67	-0.0008
837.968	0.0056
838.267	-0.0046
838.565	-0.0138
838.864	-0.0225
839.162	-0.0313
839.46	-0.0337
839.759	-0.0271
840.057	-0.0171
840.355	-0.011
840.653	-0.0114
840.951	-0.0139
841.249	-0.0084
841.547	-0.0054
841.845	-0.0088
842.142	-0.0095
842.44	-0.0195
842.738	-0.0175
843.035	-0.0294
843.333	-0.0268
843.63	-0.0228
843.928	-0.0083
844.225	0.0028
844.522	0.0041
844.82	-0.0109
845.117	-0.0125
845.414	-0.0245
845.711	-0.0117
846.008	-0.0142
846.305	-0.011
846.602	-0.0217
846.898	-0.0262
847.195	-0.0195
847.492	-0.0091
847.788	-0.0142
848.085	-0.0228
848.382	-0.0257
848.678	-0.0264
848.974	-0.0234
849.271	-0.0216
849.567	-0.0124
849.863	-0.0123
850.159	-0.0246
850.455	-0.0301
850.751	-0.022
851.047	-0.0119
851.343	-0.0181
851.639	-0.0148
851.935	-0.0227
852.23	-0.0148
852.526	-0.0382
852.822	-0.0275
853.117	-0.0221
853.413	-0.0055
853.708	-0.013
854.003	-0.0035
854.299	0.0125
854.594	0.0181
854.889	-0.0109
855.184	-0.0177
855.479	-0.0077
855.774	0.0101
856.069	-0.0048
856.364	-0.0194
856.659	-0.0203
856.954	0.001
857.248	-0.002
857.543	0.0018
857.837	-0.0193
858.132	-0.0047
858.426	-0.0118
858.721	-0.013
859.015	-0.0209
859.309	-0.024
859.604	-0.02
859.898	-0.0083
860.192	-0.0031
860.486	-0.0015
860.78	-0.0096
861.074	-0.0069
861.367	0.0022
861.661	-0.0015
861.955	0.0047
862.248	0.0057
862.542	0.0024
862.836	-0.0016
863.129	-0.0224
863.422	-0.0084
863.716	-0.0054
864.009	0.0063
864.302	-0.0152
864.595	-0.0207
864.889	-0.0368
865.182	-0.0328
865.475	-0.0349
865.767	-0.0397
866.06	-0.0433
866.353	-0.043
866.646	-0.0165
866.938	-0.0087
867.231	-0.0088
867.524	-0.0121
867.816	-0.0034
868.109	0.0025
868.401	0.0081
868.693	0.0006
868.985	-0.0148
869.278	-0.0256
869.57	-0.0397
869.862	-0.0474
870.154	-0.0596
870.446	-0.0562
870.738	-0.0483
871.029	-0.0449
871.321	-0.0298
871.613	-0.016
871.904	0.0024
872.196	-0.0021
872.487	0.0077
872.779	-0.0176
873.07	-0.0144
873.362	-0.0223
873.653	0.0017
873.944	-0.0053
874.235	-0.013
874.526	-0.0328
874.817	-0.0412
875.108	-0.041
875.399	-0.0203
875.69	0.0037
875.981	-0.0059
876.271	-0.0109
876.562	-0.0067
876.853	-0.0095
877.143	-0.0182
877.434	-0.0135
877.724	-0.0237
878.014	-0.0135
878.305	-0.0338
878.595	0.0085
878.885	-0.0011
879.175	-0.014
879.465	-0.0361
879.755	-0.0351
880.045	-0.0192
880.335	-0.0181
880.624	-0.0164
880.914	-0.0164
