Data from 23SS05LI_072017_1a_Absorbance_18-19-03-769.txt Node
Date: Fri Jul 28 18:19:03 MDT 2017
User: Tank Lab
Spectrometer: FLMS01220
Trigger mode: 0
Integration Time (sec): 1.000000E-1
Scans to average: 10
Electric dark correction enabled: true
Nonlinearity correction enabled: false
Boxcar width: 1
XAxis mode: Wavelengths
Number of Pixels in Spectrum: 2048
>>>>>Begin Spectral Data<<<<<
179.47	0.4886
179.856	0.4886
180.241	-0
180.626	-0.7032
181.011	0.7822
181.396	0.3801
181.781	0.4219
182.166	-0.3725
182.551	-0.0071
182.936	0.9948
183.321	-0
183.706	-0
184.091	-0.1294
184.476	-0.479
184.86	-0
185.245	-0.3652
185.63	0.3199
186.015	-0
186.399	1.1665
186.784	-0
187.169	0.9143
187.553	0.466
187.938	-0
188.322	-0.0966
188.707	-0.0344
189.091	0.0119
189.475	0.058
189.86	0.0683
190.244	0.1154
190.629	0.117
191.013	0.1746
191.397	0.2203
191.781	0.3147
192.165	0.3474
192.55	0.4084
192.934	0.4542
193.318	0.4868
193.702	0.5203
194.086	0.5096
194.47	0.5221
194.854	0.5186
195.238	0.5364
195.622	0.5624
196.006	0.5606
196.389	0.5532
196.773	0.5231
197.157	0.5146
197.541	0.5022
197.924	0.4816
198.308	0.4635
198.692	0.4478
199.075	0.4392
199.459	0.419
199.843	0.3982
200.226	0.3806
200.61	0.3729
200.993	0.3622
201.376	0.3488
201.76	0.3302
202.143	0.3203
202.527	0.3057
202.91	0.2965
203.293	0.2867
203.676	0.2807
204.059	0.2742
204.443	0.2694
204.826	0.2666
205.209	0.2619
205.592	0.253
205.975	0.2446
206.358	0.2412
206.741	0.2395
207.124	0.2386
207.507	0.2295
207.89	0.2241
208.273	0.2195
208.655	0.2188
209.038	0.2144
209.421	0.2085
209.804	0.2093
210.186	0.2086
210.569	0.2064
210.951	0.2042
211.334	0.2
211.717	0.1996
212.099	0.1932
212.482	0.1939
212.864	0.1894
213.246	0.1902
213.629	0.186
214.011	0.1856
214.393	0.1797
214.776	0.1779
215.158	0.1758
215.54	0.177
215.922	0.1759
216.305	0.1745
216.687	0.1723
217.069	0.1697
217.451	0.1663
217.833	0.1634
218.215	0.1612
218.597	0.1605
218.979	0.1557
219.361	0.1516
219.742	0.1499
220.124	0.1515
220.506	0.1516
220.888	0.1476
221.27	0.1462
221.651	0.1444
222.033	0.1432
222.415	0.1407
222.796	0.1392
223.178	0.1385
223.559	0.1367
223.941	0.1335
224.322	0.1309
224.704	0.129
225.085	0.1294
225.466	0.1277
225.848	0.1259
226.229	0.1224
226.61	0.1225
226.992	0.121
227.373	0.1196
227.754	0.1176
228.135	0.1151
228.516	0.1149
228.897	0.1126
229.278	0.1125
229.659	0.1112
230.04	0.1101
230.421	0.1088
230.802	0.1069
231.183	0.1071
231.564	0.1066
231.944	0.106
232.325	0.1038
232.706	0.1023
233.087	0.1013
233.467	0.1002
233.848	0.0988
234.229	0.0985
234.609	0.0989
234.99	0.0973
235.37	0.0962
235.751	0.0941
236.131	0.0937
236.511	0.0937
236.892	0.0937
237.272	0.0938
237.652	0.0914
238.033	0.0912
238.413	0.0918
238.793	0.0917
239.173	0.0907
239.553	0.0898
239.933	0.0896
240.313	0.0884
240.694	0.0851
241.074	0.0827
241.453	0.0819
241.833	0.0826
242.213	0.0838
242.593	0.0826
242.973	0.0828
243.353	0.0804
243.732	0.0816
244.112	0.0815
244.492	0.0828
244.872	0.0812
245.251	0.0803
245.631	0.0797
246.01	0.0793
246.39	0.0785
246.769	0.0784
247.149	0.0787
247.528	0.0802
247.908	0.0796
248.287	0.0797
248.666	0.0775
249.045	0.0774
249.425	0.0754
249.804	0.0742
250.183	0.0747
250.562	0.0747
250.941	0.075
251.32	0.0733
251.699	0.0745
252.078	0.0751
252.457	0.0751
252.836	0.0751
253.215	0.074
253.594	0.0739
253.973	0.0736
254.352	0.0732
254.731	0.0722
255.109	0.0708
255.488	0.0709
255.867	0.0715
256.245	0.071
256.624	0.0708
257.002	0.07
257.381	0.0702
257.759	0.0695
258.138	0.0695
258.516	0.0697
258.895	0.069
259.273	0.0692
259.651	0.0676
260.03	0.0682
260.408	0.068
260.786	0.0696
261.164	0.0698
261.542	0.0697
261.921	0.0681
262.299	0.0673
262.677	0.0668
263.055	0.0673
263.433	0.0667
263.811	0.0669
264.188	0.0663
264.566	0.0665
264.944	0.0653
265.322	0.0651
265.7	0.0643
266.077	0.0645
266.455	0.0635
266.833	0.0637
267.21	0.0633
267.588	0.0639
267.966	0.0637
268.343	0.0637
268.721	0.0625
269.098	0.0621
269.475	0.062
269.853	0.0621
270.23	0.0609
270.607	0.0591
270.985	0.0589
271.362	0.0593
271.739	0.0603
272.116	0.0598
272.494	0.0595
272.871	0.0589
273.248	0.0588
273.625	0.0581
274.002	0.0567
274.379	0.0559
274.756	0.0564
275.132	0.0564
275.509	0.0554
275.886	0.054
276.263	0.0544
276.64	0.0539
277.016	0.0541
277.393	0.0542
277.77	0.0534
278.146	0.0528
278.523	0.0525
278.899	0.0532
279.276	0.0538
279.652	0.053
280.029	0.0538
280.405	0.0524
280.782	0.051
281.158	0.0493
281.534	0.0495
281.91	0.0496
282.287	0.0502
282.663	0.051
283.039	0.0516
283.415	0.0502
283.791	0.0498
284.167	0.0478
284.543	0.0489
284.919	0.0468
285.295	0.0485
285.671	0.0475
286.047	0.0484
286.423	0.0471
286.799	0.0476
287.174	0.0476
287.55	0.0467
287.926	0.0451
288.301	0.0447
288.677	0.0455
289.053	0.0456
289.428	0.0441
289.804	0.0433
290.179	0.0431
290.555	0.0446
290.93	0.0433
291.305	0.0424
291.681	0.0428
292.056	0.0447
292.431	0.0442
292.806	0.043
293.182	0.0409
293.557	0.041
293.932	0.0396
294.307	0.0394
294.682	0.04
295.057	0.0405
295.432	0.0406
295.807	0.0398
296.182	0.0402
296.557	0.0411
296.932	0.0395
297.306	0.0399
297.681	0.0382
298.056	0.0399
298.43	0.0371
298.805	0.0358
299.18	0.0352
299.554	0.0365
299.929	0.0391
300.303	0.0382
300.678	0.0362
301.052	0.0351
301.427	0.0346
301.801	0.036
302.175	0.0355
302.55	0.0359
302.924	0.035
303.298	0.034
303.672	0.0346
304.046	0.0347
304.421	0.0368
304.795	0.0363
305.169	0.0364
305.543	0.0339
305.917	0.0331
306.291	0.0323
306.664	0.0338
307.038	0.0343
307.412	0.035
307.786	0.0336
308.16	0.0329
308.533	0.0325
308.907	0.0328
309.281	0.0334
309.654	0.0331
310.028	0.0333
310.401	0.0332
310.775	0.033
311.148	0.0322
311.522	0.0311
311.895	0.0301
312.268	0.0304
312.642	0.0298
313.015	0.0322
313.388	0.031
313.761	0.0312
314.135	0.0299
314.508	0.0298
314.881	0.03
315.254	0.0293
315.627	0.0304
316	0.0312
316.373	0.0298
316.746	0.0294
317.118	0.0274
317.491	0.0286
317.864	0.029
318.237	0.029
318.61	0.0275
318.982	0.0258
319.355	0.0256
319.727	0.0272
320.1	0.0275
320.473	0.028
320.845	0.0279
321.218	0.0275
321.59	0.0277
321.962	0.027
322.335	0.0272
322.707	0.0269
323.079	0.0265
323.452	0.0271
323.824	0.0278
324.196	0.0266
324.568	0.0253
324.94	0.0247
325.312	0.0271
325.684	0.0281
326.056	0.0264
326.428	0.0249
326.8	0.0231
327.172	0.0241
327.544	0.0222
327.915	0.0206
328.287	0.0195
328.659	0.0219
329.031	0.0242
329.402	0.0236
329.774	0.0215
330.145	0.0196
330.517	0.0191
330.888	0.0196
331.26	0.0208
331.631	0.0219
332.003	0.0228
332.374	0.0217
332.745	0.0202
333.117	0.0191
333.488	0.0195
333.859	0.0206
334.23	0.0196
334.601	0.0186
334.972	0.0193
335.343	0.0195
335.714	0.0187
336.085	0.0163
336.456	0.0169
336.827	0.018
337.198	0.0192
337.569	0.0182
337.94	0.0168
338.31	0.0157
338.681	0.0147
339.052	0.0163
339.422	0.0178
339.793	0.0201
340.164	0.0186
340.534	0.018
340.905	0.0166
341.275	0.0161
341.645	0.0163
342.016	0.0174
342.386	0.018
342.756	0.0187
343.127	0.0169
343.497	0.0157
343.867	0.0156
344.237	0.0166
344.607	0.0173
344.977	0.0155
345.347	0.0165
345.717	0.0155
346.087	0.0157
346.457	0.0152
346.827	0.0174
347.197	0.018
347.567	0.017
347.936	0.0166
348.306	0.0175
348.676	0.0185
349.046	0.0183
349.415	0.0168
349.785	0.0161
350.154	0.0149
350.524	0.0149
350.893	0.0132
351.263	0.0146
351.632	0.0139
352.001	0.0148
352.371	0.0151
352.74	0.0161
353.109	0.0165
353.478	0.0152
353.847	0.0153
354.217	0.0157
354.586	0.0146
354.955	0.0148
355.324	0.0142
355.693	0.0169
356.062	0.0174
356.43	0.0167
356.799	0.014
357.168	0.0109
357.537	0.0109
357.906	0.0121
358.274	0.0143
358.643	0.0148
359.011	0.0139
359.38	0.0127
359.749	0.012
360.117	0.0105
360.486	0.0109
360.854	0.0115
361.222	0.0115
361.591	0.011
361.959	0.0086
362.327	0.0102
362.695	0.0102
363.064	0.0135
363.432	0.0127
363.8	0.0114
364.168	0.0098
364.536	0.0098
364.904	0.0099
365.272	0.0095
365.64	0.0088
366.008	0.0097
366.376	0.0088
366.743	0.0086
367.111	0.0084
367.479	0.0071
367.847	0.0081
368.214	0.0093
368.582	0.012
368.949	0.013
369.317	0.011
369.684	0.0092
370.052	0.0072
370.419	0.0075
370.787	0.0088
371.154	0.0102
371.521	0.0116
371.889	0.0108
372.256	0.0095
372.623	0.0085
372.99	0.0081
373.357	0.0061
373.724	0.0077
374.091	0.0088
374.458	0.0114
374.825	0.0101
375.192	0.0086
375.559	0.0084
375.926	0.0075
376.293	0.0094
376.659	0.0103
377.026	0.0105
377.393	0.0115
377.759	0.0099
378.126	0.0105
378.492	0.0078
378.859	0.0066
379.225	0.0061
379.592	0.0054
379.958	0.0069
380.325	0.0056
380.691	0.0069
381.057	0.0064
381.423	0.0073
381.79	0.0064
382.156	0.0043
382.522	0.005
382.888	0.0046
383.254	0.0081
383.62	0.0088
383.986	0.009
384.352	0.0067
384.718	0.0055
385.084	0.0064
385.449	0.0074
385.815	0.0087
386.181	0.0092
386.547	0.0102
386.912	0.0066
387.278	0.0056
387.643	0.0033
388.009	0.0057
388.374	0.0069
388.74	0.009
389.105	0.0094
389.471	0.008
389.836	0.0081
390.201	0.0098
390.566	0.0107
390.932	0.0089
391.297	0.0055
391.662	0.0044
392.027	0.0045
392.392	0.0043
392.757	0.0038
393.122	0.0048
393.487	0.0055
393.852	0.0071
394.217	0.0064
394.582	0.0071
394.946	0.0058
395.311	0.0042
395.676	0.0034
396.04	0.0036
396.405	0.0055
396.77	0.0059
397.134	0.0054
397.499	0.0064
397.863	0.0063
398.227	0.0075
398.592	0.0045
398.956	0.0049
399.32	0.0056
399.685	0.0084
400.049	0.0095
400.413	0.0076
400.777	0.0064
401.141	0.0052
401.505	0.0075
401.869	0.0062
402.233	0.0062
402.597	0.004
402.961	0.0045
403.325	0.0061
403.689	0.0074
404.053	0.0085
404.416	0.0058
404.78	0.0045
405.144	0.0049
405.507	0.0075
405.871	0.0088
406.234	0.0065
406.598	0.0042
406.961	0.0018
407.325	0.0022
407.688	0.0025
408.051	0.0044
408.415	0.0073
408.778	0.0055
409.141	0.0055
409.504	0.0053
409.867	0.0054
410.23	0.0056
410.593	0.0036
410.956	0.0037
411.319	0.0024
411.682	-0.0015
412.045	0.0004
412.408	-0.0016
412.771	0.0041
413.134	0.003
413.496	0.0056
413.859	0.005
414.222	0.0085
414.584	0.0108
414.947	0.01
415.309	0.0064
415.672	0.0049
416.034	0.006
416.396	0.0055
416.759	0.0049
417.121	0.0026
417.483	0.0026
417.846	0.0014
418.208	0.0023
418.57	0.0035
418.932	0.0027
419.294	0.0035
419.656	0.0031
420.018	0.0048
420.38	0.0032
420.742	0.0022
421.104	0.001
421.466	0.003
421.827	0.0015
422.189	0.0021
422.551	0.001
422.912	0.0065
423.274	0.0077
423.636	0.0083
423.997	0.007
424.359	0.0065
424.72	0.0064
425.081	0.004
425.443	0.0037
425.804	0.0032
426.165	0.0059
426.527	0.0058
426.888	0.0052
427.249	0.0048
427.61	0.0055
427.971	0.0029
428.332	0.0003
428.693	-0.0002
429.054	0.0014
429.415	0.0034
429.776	0.0021
430.137	0.0023
430.498	0.002
430.858	0.0035
431.219	0.0044
431.58	0.0044
431.94	0.0038
432.301	0.0036
432.661	0.002
433.022	0.0022
433.382	0.0036
433.743	0.0054
434.103	0.0074
434.463	0.0062
434.824	0.0057
435.184	0.0063
435.544	0.0064
435.904	0.0079
436.264	0.0045
436.624	0.0043
436.985	0.0022
437.345	0.0029
437.704	0.0022
438.064	0.0035
438.424	0.0029
438.784	0.0025
439.144	0.0027
439.504	0.0044
439.863	0.0031
440.223	0.002
440.583	0.0003
440.942	0.0028
441.302	0.0028
441.661	0.0015
442.021	0.0024
442.38	0.0011
442.739	0.0006
443.099	-0.0047
443.458	-0.0019
443.817	0.0001
444.176	0.0058
444.536	0.0042
444.895	0.0046
445.254	0.0003
445.613	0.0026
445.972	0.0024
446.331	0.0049
446.69	0.0021
447.049	0
447.407	-0.0002
447.766	0.0013
448.125	0.0042
448.484	0.0034
448.842	0.0029
449.201	0.0038
449.559	0.0027
449.918	0.0029
450.276	0.0018
450.635	0.0054
450.993	0.0044
451.352	0.0023
451.71	0.0002
452.068	0.0008
452.426	0.0035
452.785	0.0046
453.143	0.0032
453.501	0.0009
453.859	-0.0017
454.217	0.0006
454.575	-0.0006
454.933	-0.0002
455.291	0.001
455.649	0.0033
456.006	0.0032
456.364	0.0003
456.722	-0.0009
457.079	0.0016
457.437	0.0029
457.795	0.0046
458.152	0.0051
458.51	0.0044
458.867	0.0029
459.225	0.0012
459.582	0.0003
459.939	0.0003
460.297	0.0012
460.654	0.0028
461.011	0.0037
461.368	0.0037
461.725	0.002
462.082	0.0012
462.44	-0.0008
462.797	-0.0003
463.153	0.002
463.51	0.0017
463.867	0.0019
464.224	0.0028
464.581	0.0047
464.938	0.0075
465.294	0.0052
465.651	0.0073
466.008	0.002
466.364	0.001
466.721	-0.0019
467.077	-0.0018
467.434	0.0007
467.79	0.0024
468.146	0.0028
468.503	0.0012
468.859	-0.0008
469.215	0.0003
469.571	-0.0017
469.927	0.0004
470.284	0.0015
470.64	0.004
470.996	0.0035
471.352	0.0014
471.707	-0.0007
472.063	0.0014
472.419	0.0038
472.775	0.0054
473.131	0.0044
473.486	0.0002
473.842	0.0013
474.198	-0.0007
474.553	0.002
474.909	0.0015
475.264	0.0028
475.62	0.0056
475.975	0.0044
476.331	0.0047
476.686	0.0038
477.041	0.0019
477.396	-0.0008
477.752	-0.0013
478.107	0.0015
478.462	0.0009
478.817	0
479.172	-0.0013
479.527	-0.0016
479.882	-0.0009
480.237	0.0019
480.591	0.0036
480.946	0.0045
481.301	0.0012
481.656	0.002
482.01	-0.0006
482.365	0.0001
482.72	-0.0006
483.074	0.0023
483.429	0.0006
483.783	0.0017
484.137	0.0007
484.492	0.0027
484.846	0.0017
485.2	0.0016
485.555	0.003
485.909	0.0041
486.263	0.0034
486.617	0.0033
486.971	0.0027
487.325	0.0037
487.679	0.0016
488.033	0.0028
488.387	0.0038
488.741	0.0039
489.094	0.0004
489.448	-0.0028
489.802	-0.0011
490.156	0.0001
490.509	0.0017
490.863	-0.0001
491.216	-0.0001
491.57	-0.0008
491.923	-0.002
492.277	-0.0008
492.63	-0.0005
492.983	0.0013
493.337	-0.0011
493.69	-0.002
494.043	-0.0031
494.396	-0.0013
494.749	-0.0018
495.102	-0.0009
495.455	0.0011
495.808	0.003
496.161	0.003
496.514	0.0017
496.867	0.0016
497.22	0.0012
497.572	-0.0003
497.925	0.0002
498.278	-0.0003
498.63	0.0008
498.983	0.0011
499.335	0.0006
499.688	-0.0004
500.04	-0.0022
500.393	-0.0008
500.745	-0.0013
501.097	-0.0012
501.449	-0.002
501.802	-0.0033
502.154	-0.0028
502.506	-0.0012
502.858	-0.0005
503.21	-0.0014
503.562	-0.0035
503.914	-0.0024
504.266	0.0001
504.618	0.0008
504.969	0.0019
505.321	0.0004
505.673	0.0014
506.025	0.0002
506.376	0.0004
506.728	-0.0001
507.079	-0.0003
507.431	-0.0018
507.782	-0.0033
508.134	-0.0013
508.485	0.0011
508.836	0.0027
509.188	0.0011
509.539	-0.0009
509.89	-0.0002
510.241	-0.0013
510.592	-0.0012
510.943	-0.0012
511.294	0.0009
511.645	-0.0008
511.996	-0.0022
512.347	-0.0051
512.698	-0.0033
513.049	-0.003
513.399	0.0009
513.75	0.0018
514.101	0.0026
514.451	0.0016
514.802	-0.0014
515.152	-0.0031
515.503	-0.0023
515.853	0.0006
516.203	0.0017
516.554	-0.0005
516.904	0.0005
517.254	-0
517.604	0.0005
517.955	-0.0001
518.305	-0.0032
518.655	-0.0043
519.005	-0.006
519.355	-0.0022
519.705	-0.0039
520.055	-0.0059
520.404	-0.008
520.754	-0.0069
521.104	-0.0039
521.454	-0.0021
521.803	-0.0016
522.153	-0.0023
522.502	-0.0023
522.852	-0.001
523.201	-0.0011
523.551	-0.0021
523.9	-0.0028
524.249	-0.0039
524.599	-0.0018
524.948	-0.002
525.297	-0.0003
525.646	-0.0026
525.995	-0.0033
526.344	-0.0032
526.694	-0.0029
527.042	-0.0023
527.391	-0.0045
527.74	-0.0025
528.089	0.0003
528.438	0.0025
528.787	-0.0016
529.135	-0.0062
529.484	-0.0087
529.833	-0.006
530.181	-0.0038
530.53	-0.0027
530.878	-0.0042
531.227	-0.0039
531.575	-0.0054
531.923	-0.006
532.271	-0.0076
532.62	-0.0054
532.968	-0.0056
533.316	-0.006
533.664	-0.0043
534.012	-0.0017
534.36	0.0037
534.708	0.0017
535.056	0.0018
535.404	-0.001
535.752	0.0016
536.1	0.0025
536.447	0.0018
536.795	0.0002
537.143	-0.0024
537.49	-0.0017
537.838	-0.0027
538.185	-0.0018
538.533	-0.0032
538.88	-0.0042
539.228	-0.0044
539.575	-0.0053
539.922	-0.0037
540.269	-0.0021
540.617	-0.0005
540.964	-0.0025
541.311	-0.0048
541.658	-0.0046
542.005	-0.0024
542.352	-0.0023
542.699	-0.0029
543.045	-0.0038
543.392	-0.0021
543.739	-0.0016
544.086	-0.0043
544.432	-0.0075
544.779	-0.0099
545.126	-0.0062
545.472	-0.0054
545.819	-0.0061
546.165	-0.0092
546.512	-0.0076
546.858	-0.0087
547.204	-0.0075
547.55	-0.0082
547.897	-0.0046
548.243	-0.0043
548.589	-0.0036
548.935	-0.0039
549.281	-0.0041
549.627	-0.003
549.973	-0.0028
550.319	-0.0035
550.665	-0.006
551.01	-0.0067
551.356	-0.0057
551.702	-0.0045
552.048	-0.0033
552.393	-0.0028
552.739	-0.0031
553.084	-0.0043
553.43	-0.0067
553.775	-0.0074
554.12	-0.0065
554.466	-0.0069
554.811	-0.003
555.156	-0.0067
555.502	-0.005
555.847	-0.004
556.192	0.0011
556.537	-0.0007
556.882	-0.0054
557.227	-0.0107
557.572	-0.0092
557.917	-0.0058
558.261	-0.0036
558.606	-0.0014
558.951	-0.005
559.295	-0.0038
559.64	-0.0056
559.985	-0.0027
560.329	-0.0035
560.674	-0.0017
561.018	-0.0031
561.363	-0.0025
561.707	-0.0058
562.051	-0.0065
562.395	-0.005
562.74	-0.0022
563.084	-0.0031
563.428	-0.0045
563.772	-0.0087
564.116	-0.0084
564.46	-0.0091
564.804	-0.0079
565.148	-0.0097
565.492	-0.0107
565.835	-0.01
566.179	-0.0051
566.523	-0.0043
566.866	-0.004
567.21	-0.0065
567.554	-0.0034
567.897	-0.0003
568.24	0.0001
568.584	-0.0032
568.927	-0.0069
569.271	-0.0073
569.614	-0.0072
569.957	-0.0049
570.3	-0.0059
570.643	-0.0041
570.986	-0.0064
571.329	-0.0025
571.672	0.001
572.015	0.0017
572.358	0.0019
572.701	-0.0017
573.044	-0.0031
573.387	-0.0071
573.729	-0.0076
574.072	-0.0079
574.414	-0.0102
574.757	-0.0091
575.099	-0.0088
575.442	-0.0053
575.784	-0.0042
576.127	-0.0045
576.469	-0.0074
576.811	-0.0082
577.153	-0.0061
577.496	-0.0036
577.838	-0.0023
578.18	-0.0052
578.522	-0.0069
578.864	-0.013
579.206	-0.0095
579.548	-0.0093
579.889	-0.0073
580.231	-0.0064
580.573	-0.0042
580.915	-0.005
581.256	-0.0076
581.598	-0.0086
581.939	-0.0083
582.281	-0.0052
582.622	-0.0062
582.964	-0.0051
583.305	-0.0082
583.646	-0.0053
583.988	-0.0015
584.329	-0.0028
584.67	-0.0067
585.011	-0.0103
585.352	-0.0122
585.693	-0.0112
586.034	-0.0119
586.375	-0.0101
586.716	-0.0075
587.057	-0.0038
587.398	-0.0065
587.738	-0.0036
588.079	-0.0042
588.42	-0.0027
588.76	-0.0066
589.101	-0.0085
589.441	-0.0081
589.782	-0.0071
590.122	-0.0071
590.463	-0.0085
590.803	-0.009
591.143	-0.0048
591.483	-0.0043
591.823	-0.0054
592.164	-0.01
592.504	-0.0096
592.844	-0.0087
593.184	-0.0075
593.523	-0.008
593.863	-0.0063
594.203	-0.0082
594.543	-0.0093
594.883	-0.0098
595.222	-0.009
595.562	-0.0074
595.901	-0.0084
596.241	-0.0099
596.58	-0.0094
596.92	-0.0095
597.259	-0.0073
597.599	-0.0078
597.938	-0.0077
598.277	-0.0059
598.616	-0.0081
598.955	-0.0095
599.295	-0.0121
599.634	-0.0106
599.973	-0.0078
600.312	-0.0084
600.65	-0.0074
600.989	-0.0058
601.328	-0.0012
601.667	0.001
602.005	-0.0028
602.344	-0.0069
602.683	-0.0087
603.021	-0.0085
603.36	-0.0095
603.698	-0.0104
604.037	-0.0117
604.375	-0.0098
604.713	-0.0103
605.052	-0.0104
605.39	-0.012
605.728	-0.0119
606.066	-0.0069
606.404	-0.0084
606.742	-0.0082
607.08	-0.0098
607.418	-0.0093
607.756	-0.008
608.094	-0.0087
608.431	-0.007
608.769	-0.0068
609.107	-0.0101
609.444	-0.01
609.782	-0.0129
610.12	-0.0063
610.457	-0.0079
610.794	-0.0094
611.132	-0.013
611.469	-0.013
611.806	-0.0089
612.144	-0.0057
612.481	-0.0034
612.818	-0.0021
613.155	-0.0067
613.492	-0.0067
613.829	-0.0062
614.166	-0.0042
614.503	-0.0059
614.84	-0.0095
615.176	-0.0099
615.513	-0.0079
615.85	-0.0086
616.187	-0.0066
616.523	-0.0076
616.86	-0.0093
617.196	-0.0127
617.533	-0.0111
617.869	-0.0084
618.205	-0.0067
618.542	-0.0081
618.878	-0.0094
619.214	-0.0086
619.55	-0.008
619.886	-0.0063
620.222	-0.0097
620.558	-0.0081
620.894	-0.0066
621.23	-0.0062
621.566	-0.0079
621.902	-0.0095
622.238	-0.0094
622.573	-0.0034
622.909	-0.0054
623.244	-0.004
623.58	-0.0104
623.916	-0.0115
624.251	-0.0106
624.586	-0.0093
624.922	-0.0082
625.257	-0.0103
625.592	-0.0087
625.927	-0.0039
626.263	-0.0036
626.598	-0.0083
626.933	-0.0099
627.268	-0.0095
627.603	-0.0086
627.938	-0.012
628.272	-0.014
628.607	-0.0151
628.942	-0.0138
629.277	-0.0068
629.611	-0.0049
629.946	-0.0054
630.281	-0.0094
630.615	-0.009
630.949	-0.0079
631.284	-0.0084
631.618	-0.0062
631.953	-0.0036
632.287	-0.0029
632.621	-0.006
632.955	-0.0071
633.289	-0.0054
633.623	-0.0028
633.957	-0.0037
634.291	-0.0059
634.625	-0.0062
634.959	-0.0086
635.293	-0.0053
635.627	-0.0099
635.96	-0.0085
636.294	-0.0145
636.627	-0.0132
636.961	-0.009
637.294	-0.0093
637.628	-0.009
637.961	-0.0125
638.295	-0.0124
638.628	-0.0098
638.961	-0.0105
639.294	-0.0031
639.628	-0.0024
639.961	0.0006
640.294	0.0012
640.627	0.001
640.96	-0.0038
641.293	-0.0091
641.625	-0.0128
641.958	-0.0125
642.291	-0.0081
642.624	-0.0031
642.956	0.0008
643.289	-0.0012
643.621	-0.0078
643.954	-0.0124
644.286	-0.0177
644.619	-0.0136
644.951	-0.0119
645.283	-0.0105
645.616	-0.0111
645.948	-0.0077
646.28	-0.0041
646.612	-0.0014
646.944	-0.0012
647.276	-0.004
647.608	-0.0068
647.94	-0.0089
648.272	-0.0064
648.603	-0.0034
648.935	-0.0046
649.267	-0.0056
649.598	-0.0073
649.93	-0.0114
650.261	-0.0109
650.593	-0.0093
650.924	-0.0031
651.256	-0.0023
651.587	-0.0069
651.918	-0.006
652.25	-0.0067
652.581	-0.0106
652.912	-0.0141
653.243	-0.0168
653.574	-0.0117
653.905	-0.0124
654.236	-0.0125
654.567	-0.0133
654.897	-0.0133
655.228	-0.0118
655.559	-0.0093
655.89	-0.006
656.22	-0.0067
656.551	-0.0071
656.881	-0.0083
657.212	-0.0104
657.542	-0.0073
657.872	-0.0089
658.203	-0.0044
658.533	-0.0015
658.863	-0.0041
659.193	-0.0111
659.523	-0.0148
659.853	-0.0217
660.183	-0.0174
660.513	-0.0151
660.843	-0.0119
661.173	-0.0116
661.503	-0.0139
661.833	-0.0112
662.162	-0.0098
662.492	-0.0063
662.822	-0.0106
663.151	-0.0131
663.481	-0.0109
663.81	-0.0148
664.139	-0.0106
664.469	-0.0141
664.798	-0.0084
665.127	-0.0102
665.456	-0.0082
665.785	-0.0094
666.114	-0.0123
666.443	-0.0129
666.772	-0.011
667.101	-0.0104
667.43	-0.011
667.759	-0.0115
668.088	-0.0102
668.416	-0.012
668.745	-0.0117
669.074	-0.0175
669.402	-0.0186
669.731	-0.0178
670.059	-0.01
670.388	-0.0037
670.716	-0.0076
671.044	-0.0089
671.372	-0.0136
671.701	-0.0142
672.029	-0.0128
672.357	-0.0107
672.685	-0.0094
673.013	-0.0091
673.341	-0.0094
673.669	-0.0077
673.996	-0.0093
674.324	-0.007
674.652	-0.0102
674.98	-0.0105
675.307	-0.0123
675.635	-0.0128
675.962	-0.0125
676.29	-0.0107
676.617	-0.0063
676.945	-0.0059
677.272	-0.0054
677.599	-0.0041
677.926	-0.0024
678.253	-0.0039
678.581	-0.0063
678.908	-0.0096
679.235	-0.0068
679.561	-0.0043
679.888	0.0002
680.215	-0.003
680.542	-0.0049
680.869	-0.0089
681.195	-0.0077
681.522	-0.0072
681.849	-0.0073
682.175	-0.0068
682.502	-0.0094
682.828	-0.0108
683.154	-0.0148
683.481	-0.0154
683.807	-0.0141
684.133	-0.0108
684.459	-0.0086
684.785	-0.0086
685.111	-0.0138
685.437	-0.0168
685.763	-0.0179
686.089	-0.015
686.415	-0.0163
686.741	-0.0127
687.067	-0.0104
687.392	-0.0087
687.718	-0.0098
688.043	-0.0076
688.369	-0.0078
688.694	-0.005
689.02	-0.0111
689.345	-0.008
689.67	-0.016
689.996	-0.0111
690.321	-0.0111
690.646	-0.0094
690.971	-0.0134
691.296	-0.0159
691.621	-0.0138
691.946	-0.0029
692.271	-0.0052
692.596	-0.0027
692.921	-0.0074
693.245	-0.0008
693.57	0.0008
693.895	0.0025
694.219	-0.0001
694.544	-0.0057
694.868	-0.0075
695.193	-0.012
695.517	-0.0111
695.841	-0.0152
696.166	-0.0135
696.49	-0.0177
696.814	-0.0143
697.138	-0.0112
697.462	-0.0048
697.786	-0.0043
698.11	-0.0065
698.434	-0.0108
698.758	-0.012
699.081	-0.0173
699.405	-0.0147
699.729	-0.0117
700.052	-0.0109
700.376	-0.0084
700.7	-0.0098
701.023	-0.0059
701.346	-0.0118
701.67	-0.0114
701.993	-0.013
702.316	-0.0121
702.639	-0.015
702.963	-0.0198
703.286	-0.015
703.609	-0.0144
703.932	-0.0098
704.255	-0.0109
704.578	-0.0132
704.9	-0.0109
705.223	-0.0081
705.546	-0.0049
705.868	-0.0055
706.191	-0.0128
706.514	-0.0171
706.836	-0.0165
707.159	-0.0098
707.481	-0.0033
707.803	-0.0077
708.126	-0.0105
708.448	-0.0175
708.77	-0.0143
709.092	-0.0099
709.414	-0.0026
709.736	-0.006
710.058	-0.0101
710.38	-0.0142
710.702	-0.0105
711.024	-0.0094
711.345	-0.0074
711.667	-0.0102
711.989	-0.0084
712.31	-0.007
712.632	-0.0044
712.953	-0.0039
713.275	-0.0059
713.596	-0.0039
713.917	-0.005
714.239	-0.0127
714.56	-0.0151
714.881	-0.0135
715.202	-0.0076
715.523	-0.0084
715.844	-0.0106
716.165	-0.0107
716.486	-0.0126
716.807	-0.0132
717.128	-0.0121
717.448	-0.0125
717.769	-0.0144
718.09	-0.0096
718.41	-0.0065
718.731	-0.0029
719.051	-0.0089
719.372	-0.0106
719.692	-0.0153
720.012	-0.0102
720.332	-0.0117
720.653	-0.0116
720.973	-0.0114
721.293	-0.0126
721.613	-0.0115
721.933	-0.009
722.253	-0.0041
722.573	-0.0039
722.892	-0.011
723.212	-0.0155
723.532	-0.0145
723.851	-0.0121
724.171	-0.0097
724.491	-0.0134
724.81	-0.0159
725.129	-0.0098
725.449	-0.006
725.768	-0.0047
726.087	-0.0097
726.407	-0.0088
726.726	-0.0094
727.045	-0.0088
727.364	-0.0128
727.683	-0.0076
728.002	-0.006
728.321	-0.0012
728.64	-0.003
728.958	-0.0061
729.277	-0.0118
729.596	-0.0151
729.914	-0.0147
730.233	-0.0077
730.551	-0.0071
730.87	-0.0082
731.188	-0.0115
731.507	-0.0085
731.825	-0.0065
732.143	-0.0058
732.461	-0.0075
732.779	-0.0049
733.097	-0.0103
733.415	-0.0099
733.733	-0.0135
734.051	-0.0117
734.369	-0.0122
734.687	-0.0123
735.005	-0.0109
735.322	-0.0123
735.64	-0.0138
735.957	-0.0101
736.275	-0.0065
736.592	-0.006
736.91	-0.0066
737.227	-0.0087
737.544	-0.0113
737.862	-0.0098
738.179	-0.0123
738.496	-0.0076
738.813	-0.0154
739.13	-0.0161
739.447	-0.0138
739.764	-0.0102
740.081	-0.0096
740.398	-0.0136
740.714	-0.0133
741.031	-0.0092
741.348	-0.0073
741.664	-0.0044
741.981	-0.005
742.297	-0.005
742.614	-0.0106
742.93	-0.0125
743.246	-0.0157
743.563	-0.0128
743.879	-0.0154
744.195	-0.012
744.511	-0.0163
744.827	-0.014
745.143	-0.0175
745.459	-0.0133
745.775	-0.0139
746.091	-0.0148
746.406	-0.0151
746.722	-0.0172
747.038	-0.0176
747.353	-0.0199
747.669	-0.0149
747.984	-0.0147
748.3	-0.0104
748.615	-0.0113
748.93	-0.0087
749.246	-0.0081
749.561	-0.014
749.876	-0.0167
750.191	-0.021
750.506	-0.0194
750.821	-0.0165
751.136	-0.0159
751.451	-0.0094
751.766	-0.0122
752.08	-0.0126
752.395	-0.0146
752.71	-0.0138
753.024	-0.0097
753.339	-0.0064
753.653	-0.005
753.968	-0.0066
754.282	-0.0133
754.596	-0.0108
754.911	-0.0109
755.225	-0.0059
755.539	-0.0127
755.853	-0.0111
756.167	-0.0113
756.481	-0.0092
756.795	-0.0158
757.109	-0.0169
757.423	-0.0169
757.736	-0.0097
758.05	-0.0091
758.364	-0.0081
758.677	-0.0129
758.991	-0.0134
759.304	-0.0107
759.618	-0.0084
759.931	-0.0109
760.244	-0.0096
760.558	-0.0113
760.871	-0.0108
761.184	-0.0149
761.497	-0.0124
761.81	-0.0126
762.123	-0.0155
762.436	-0.0165
762.749	-0.0132
763.062	-0.0073
763.374	-0.011
763.687	-0.0135
764	-0.0144
764.312	-0.0081
764.625	-0.0052
764.937	-0.0074
765.25	-0.01
765.562	-0.0097
765.874	-0.0077
766.186	-0.0115
766.499	-0.0159
766.811	-0.02
767.123	-0.0206
767.435	-0.0193
767.747	-0.0152
768.059	-0.0103
768.37	-0.0104
768.682	-0.0108
768.994	-0.0153
769.306	-0.0156
769.617	-0.0152
769.929	-0.0072
770.24	-0.0062
770.552	-0.0112
770.863	-0.0207
771.174	-0.0193
771.486	-0.0172
771.797	-0.0154
772.108	-0.0181
772.419	-0.0164
772.73	-0.0144
773.041	-0.0103
773.352	-0.0105
773.663	-0.0104
773.974	-0.0081
774.285	-0.0109
774.595	-0.0132
774.906	-0.0149
775.217	-0.0095
775.527	-0.0075
775.838	-0.0073
776.148	-0.0117
776.458	-0.0109
776.769	-0.0156
777.079	-0.0147
777.389	-0.0162
777.699	-0.0153
778.009	-0.0131
778.319	-0.0111
778.629	-0.0088
778.939	-0.014
779.249	-0.0139
779.559	-0.0111
779.869	-0.0075
780.178	-0.0108
780.488	-0.0157
780.798	-0.0163
781.107	-0.0115
781.417	-0.0133
781.726	-0.0179
782.035	-0.0233
782.345	-0.0227
782.654	-0.0214
782.963	-0.0188
783.272	-0.0156
783.581	-0.0116
783.89	-0.0082
784.199	-0.011
784.508	-0.0153
784.817	-0.0229
785.126	-0.0233
785.434	-0.0173
785.743	-0.0125
786.052	-0.0077
786.36	-0.0132
786.669	-0.0141
786.977	-0.0204
787.285	-0.0195
787.594	-0.0166
787.902	-0.0119
788.21	-0.0088
788.518	-0.0079
788.826	-0.0096
789.135	-0.0095
789.442	-0.0099
789.75	-0.0062
790.058	-0.0107
790.366	-0.0137
790.674	-0.0194
790.981	-0.015
791.289	-0.016
791.597	-0.0185
791.904	-0.0213
792.212	-0.0234
792.519	-0.0165
792.826	-0.0131
793.134	-0.0095
793.441	-0.011
793.748	-0.0079
794.055	-0.0092
794.362	-0.0134
794.669	-0.0184
794.976	-0.0209
795.283	-0.0167
795.59	-0.0108
795.897	-0.0095
796.203	-0.0134
796.51	-0.0185
796.817	-0.0152
797.123	-0.0117
797.43	-0.0057
797.736	-0.0099
798.042	-0.0128
798.349	-0.0176
798.655	-0.0116
798.961	-0.0134
799.267	-0.015
799.573	-0.0157
799.879	-0.0125
800.185	-0.012
800.491	-0.0083
800.797	-0.0061
801.103	-0.0054
801.408	-0.0096
801.714	-0.0085
802.02	-0.0061
802.325	-0.0041
802.631	-0.0091
802.936	-0.0128
803.242	-0.018
803.547	-0.0198
803.852	-0.0187
804.157	-0.0177
804.462	-0.0124
804.768	-0.0086
805.073	-0.0064
805.378	-0.0068
805.682	-0.0131
805.987	-0.0108
806.292	-0.0075
806.597	-0.0025
806.902	-0.0116
807.206	-0.0143
807.511	-0.0228
807.815	-0.0173
808.12	-0.0182
808.424	-0.0143
808.728	-0.0143
809.033	-0.0104
809.337	-0.0108
809.641	-0.0104
809.945	-0.0173
810.249	-0.013
810.553	-0.0132
810.857	-0.0107
811.161	-0.0151
811.465	-0.0138
811.768	-0.0151
812.072	-0.0154
812.376	-0.0167
812.679	-0.0194
812.983	-0.0182
813.286	-0.021
813.59	-0.0187
813.893	-0.0143
814.196	-0.0089
814.499	-0.0025
814.803	-0.009
815.106	-0.0197
815.409	-0.022
815.712	-0.0182
816.015	-0.0064
816.318	-0.0128
816.62	-0.0192
816.923	-0.0252
817.226	-0.0282
817.528	-0.0226
817.831	-0.0197
818.133	-0.0137
818.436	-0.0157
818.738	-0.0118
819.041	-0.0097
819.343	-0.0062
819.645	-0.0083
819.947	-0.0077
820.249	-0.0121
820.551	-0.0109
820.853	-0.0108
821.155	-0.0152
821.457	-0.0139
821.759	-0.0089
822.061	-0.0021
822.362	-0.0072
822.664	-0.0151
822.966	-0.0099
823.267	-0.0065
823.569	-0.0075
823.87	-0.0186
824.171	-0.021
824.473	-0.0206
824.774	-0.0107
825.075	-0.0128
825.376	-0.0086
825.677	-0.0116
825.978	-0.0108
826.279	-0.0182
826.58	-0.013
826.881	-0.0185
827.181	-0.0127
827.482	-0.018
827.783	-0.0161
828.083	-0.0209
828.384	-0.0269
828.684	-0.0298
828.985	-0.0211
829.285	-0.0203
829.585	-0.0168
829.885	-0.0225
830.185	-0.0226
830.486	-0.0172
830.786	-0.0087
831.086	-0.0061
831.385	-0.0124
831.685	-0.0239
831.985	-0.0324
832.285	-0.0315
832.585	-0.0255
832.884	-0.0157
833.184	-0.0127
833.483	-0.0224
833.783	-0.0189
834.082	-0.0196
834.381	-0.0102
834.681	-0.0127
834.98	-0.0145
835.279	-0.0102
835.578	-0.0104
835.877	-0.0095
836.176	-0.0066
836.475	-0.0058
836.774	-0.008
837.072	-0.0108
837.371	-0.0083
837.67	-0.0062
837.968	-0.0052
838.267	-0.0162
838.565	-0.013
838.864	-0.02
839.162	-0.0157
839.46	-0.0277
839.759	-0.0234
840.057	-0.0256
840.355	-0.0117
840.653	-0.0172
840.951	-0.0111
841.249	-0.0082
841.547	-0.0017
841.845	0.002
842.142	0.0106
842.44	0.0006
842.738	-0.0163
843.035	-0.0374
843.333	-0.0351
843.63	-0.0207
843.928	-0.012
844.225	-0.0102
844.522	-0.0087
844.82	-0.0155
845.117	-0.0143
845.414	-0.0221
845.711	-0.0129
846.008	-0.0133
846.305	-0.0149
846.602	-0.0335
846.898	-0.0327
847.195	-0.0435
847.492	-0.0326
847.788	-0.043
848.085	-0.0203
848.382	-0.0128
848.678	-0.01
848.974	-0.0161
849.271	-0.0128
849.567	-0.0114
849.863	-0.0207
850.159	-0.0344
850.455	-0.016
850.751	-0.0146
851.047	-0.0077
851.343	-0.0211
851.639	-0.017
851.935	-0.0231
852.23	-0.0307
852.526	-0.0297
852.822	-0.0263
853.117	-0.0187
853.413	-0.0205
853.708	-0.0212
854.003	-0.0023
854.299	0.0081
854.594	0.0065
854.889	-0.0198
855.184	-0.0185
855.479	-0.0058
855.774	0.0123
856.069	-0.0052
856.364	-0.0036
856.659	-0.0074
856.954	0.0094
857.248	-0.0061
857.543	-0.006
857.837	-0.0172
858.132	-0.0067
858.426	-0.0183
858.721	-0.0153
859.015	-0.0252
859.309	-0.0236
859.604	-0.0298
859.898	-0.0185
860.192	-0.0185
860.486	-0.025
860.78	-0.0206
861.074	-0.0048
861.367	0.02
861.661	0.0074
861.955	0.0109
862.248	0.0179
862.542	0.0243
862.836	0.0154
863.129	-0.0124
863.422	-0.0091
863.716	-0.0115
864.009	0.0128
864.302	0.0012
864.595	-0.0063
864.889	-0.0249
865.182	-0.0294
865.475	-0.031
865.767	-0.0405
866.06	-0.0281
866.353	-0.0176
866.646	0.0157
866.938	0.0132
867.231	0.0072
867.524	-0.0043
867.816	0.0035
868.109	0.0266
868.401	0.0236
868.693	0.0146
868.985	-0.0105
869.278	-0.0172
869.57	-0.0139
869.862	-0.025
870.154	-0.0271
870.446	-0.0326
870.738	-0.0301
871.029	-0.042
871.321	-0.0263
871.613	-0.0062
871.904	0.0167
872.196	-0.0081
872.487	-0.0056
872.779	-0.0231
873.07	-0.0224
873.362	-0.0226
873.653	0.0075
873.944	0.012
874.235	-0.0144
874.526	-0.0429
874.817	-0.0422
875.108	-0.0171
875.399	-0.0041
875.69	0.0233
875.981	0.0223
876.271	0.0007
876.562	-0.0142
876.853	-0.0295
877.143	-0.0134
877.434	-0.0127
877.724	-0.0255
878.014	-0.0104
878.305	-0.0246
878.595	0.0085
878.885	-0.021
879.175	-0.0259
879.465	-0.0375
879.755	-0.0164
880.045	0.016
880.335	0.0236
880.624	0.0293
880.914	0.0293
