Data from 23SS05LI_072017_1b_Absorbance_18-24-25-370.txt Node
Date: Fri Jul 28 18:24:25 MDT 2017
User: Tank Lab
Spectrometer: FLMS01220
Trigger mode: 0
Integration Time (sec): 1.000000E-1
Scans to average: 10
Electric dark correction enabled: true
Nonlinearity correction enabled: false
Boxcar width: 1
XAxis mode: Wavelengths
Number of Pixels in Spectrum: 2048
>>>>>Begin Spectral Data<<<<<
179.47	-0
179.856	-0
180.241	-0
180.626	-0
181.011	-0.0889
181.396	-0.1383
181.781	0.5566
182.166	-0.5562
182.551	0.1919
182.936	2.6937
183.321	-0
183.706	0.7506
184.091	-0.4231
184.476	-0
184.86	-0.6538
185.245	-0.9388
185.63	1.2199
186.015	-0
186.399	-0
186.784	-0
187.169	0.4627
187.553	-0.0301
187.938	-0
188.322	0.0463
188.707	0.042
189.091	0.0471
189.475	0.0711
189.86	0.072
190.244	0.1168
190.629	0.1189
191.013	0.1828
191.397	0.2561
191.781	0.3525
192.165	0.3967
192.55	0.4317
192.934	0.4453
193.318	0.4835
193.702	0.5054
194.086	0.5342
194.47	0.5433
194.854	0.5663
195.238	0.5526
195.622	0.5724
196.006	0.5603
196.389	0.555
196.773	0.5215
197.157	0.5014
197.541	0.497
197.924	0.473
198.308	0.4639
198.692	0.4538
199.075	0.4459
199.459	0.4197
199.843	0.3923
200.226	0.3744
200.61	0.3674
200.993	0.3518
201.376	0.3399
201.76	0.3218
202.143	0.3157
202.527	0.3064
202.91	0.2958
203.293	0.2824
203.676	0.2709
204.059	0.2688
204.443	0.2667
204.826	0.2619
205.209	0.2534
205.592	0.2501
205.975	0.2468
206.358	0.2441
206.741	0.2384
207.124	0.2381
207.507	0.2326
207.89	0.2235
208.273	0.2167
208.655	0.2159
209.038	0.2147
209.421	0.2086
209.804	0.207
210.186	0.2071
210.569	0.2059
210.951	0.2
211.334	0.1979
211.717	0.1971
212.099	0.1935
212.482	0.1901
212.864	0.1869
213.246	0.1882
213.629	0.186
214.011	0.1877
214.393	0.185
214.776	0.1822
215.158	0.1748
215.54	0.1714
215.922	0.1722
216.305	0.1711
216.687	0.1714
217.069	0.1669
217.451	0.1643
217.833	0.161
218.215	0.1588
218.597	0.1581
218.979	0.157
219.361	0.1541
219.742	0.1532
220.124	0.1519
220.506	0.1521
220.888	0.1479
221.27	0.1472
221.651	0.1448
222.033	0.1442
222.415	0.1392
222.796	0.1382
223.178	0.139
223.559	0.1389
223.941	0.1361
224.322	0.1317
224.704	0.1279
225.085	0.1275
225.466	0.1264
225.848	0.1252
226.229	0.1209
226.61	0.121
226.992	0.1192
227.373	0.1179
227.754	0.1148
228.135	0.1136
228.516	0.1143
228.897	0.1118
229.278	0.1102
229.659	0.108
230.04	0.1086
230.421	0.1083
230.802	0.1064
231.183	0.1064
231.564	0.1056
231.944	0.1037
232.325	0.1008
232.706	0.0994
233.087	0.1003
233.467	0.0997
233.848	0.0992
234.229	0.0982
234.609	0.0993
234.99	0.0979
235.37	0.0973
235.751	0.094
236.131	0.0935
236.511	0.0939
236.892	0.0931
237.272	0.0933
237.652	0.0927
238.033	0.093
238.413	0.0932
238.793	0.0914
239.173	0.0896
239.553	0.0886
239.933	0.088
240.313	0.0885
240.694	0.0848
241.074	0.0825
241.453	0.0813
241.833	0.0828
242.213	0.0847
242.593	0.0839
242.973	0.0829
243.353	0.0809
243.732	0.0816
244.112	0.0812
244.492	0.0812
244.872	0.0808
245.251	0.0808
245.631	0.08
246.01	0.0793
246.39	0.0788
246.769	0.0797
247.149	0.0785
247.528	0.0796
247.908	0.0791
248.287	0.079
248.666	0.0778
249.045	0.0767
249.425	0.0767
249.804	0.0756
250.183	0.0765
250.562	0.0758
250.941	0.0757
251.32	0.0746
251.699	0.0758
252.078	0.0755
252.457	0.0749
252.836	0.0742
253.215	0.0739
253.594	0.0734
253.973	0.0742
254.352	0.0732
254.731	0.0729
255.109	0.0698
255.488	0.0705
255.867	0.071
256.245	0.0721
256.624	0.0708
257.002	0.0696
257.381	0.0693
257.759	0.0683
258.138	0.0687
258.516	0.068
258.895	0.0695
259.273	0.0685
259.651	0.0682
260.03	0.0676
260.408	0.068
260.786	0.0687
261.164	0.0686
261.542	0.0672
261.921	0.0666
262.299	0.0663
262.677	0.0671
263.055	0.066
263.433	0.0653
263.811	0.0645
264.188	0.0637
264.566	0.0643
264.944	0.0644
265.322	0.0653
265.7	0.0644
266.077	0.0632
266.455	0.0627
266.833	0.0635
267.21	0.0638
267.588	0.0641
267.966	0.0629
268.343	0.0638
268.721	0.0623
269.098	0.0612
269.475	0.0606
269.853	0.0607
270.23	0.061
270.607	0.0599
270.985	0.0596
271.362	0.0584
271.739	0.0579
272.116	0.0578
272.494	0.0586
272.871	0.0595
273.248	0.0592
273.625	0.0574
274.002	0.0555
274.379	0.0541
274.756	0.055
275.132	0.0562
275.509	0.0564
275.886	0.0567
276.263	0.0566
276.64	0.0567
277.016	0.0559
277.393	0.055
277.77	0.0534
278.146	0.0526
278.523	0.051
278.899	0.0507
279.276	0.0508
279.652	0.0513
280.029	0.0516
280.405	0.0508
280.782	0.0511
281.158	0.052
281.534	0.0512
281.91	0.0502
282.287	0.049
282.663	0.0506
283.039	0.0513
283.415	0.051
283.791	0.0491
284.167	0.0478
284.543	0.0481
284.919	0.0469
285.295	0.047
285.671	0.0468
286.047	0.0477
286.423	0.0468
286.799	0.0468
287.174	0.0467
287.55	0.0458
287.926	0.0441
288.301	0.0436
288.677	0.0447
289.053	0.0454
289.428	0.0449
289.804	0.0434
290.179	0.0426
290.555	0.0436
290.93	0.0434
291.305	0.0436
291.681	0.0432
292.056	0.0449
292.431	0.0433
292.806	0.043
293.182	0.041
293.557	0.0411
293.932	0.0399
294.307	0.041
294.682	0.0418
295.057	0.0419
295.432	0.0406
295.807	0.0405
296.182	0.0411
296.557	0.0412
296.932	0.0404
297.306	0.0388
297.681	0.037
298.056	0.0375
298.43	0.0378
298.805	0.0364
299.18	0.0356
299.554	0.0362
299.929	0.0397
300.303	0.0393
300.678	0.0372
301.052	0.0367
301.427	0.0357
301.801	0.037
302.175	0.035
302.55	0.0356
302.924	0.0341
303.298	0.0342
303.672	0.034
304.046	0.0347
304.421	0.0351
304.795	0.0351
305.169	0.036
305.543	0.0351
305.917	0.0354
306.291	0.0331
306.664	0.0331
307.038	0.0316
307.412	0.0333
307.786	0.0338
308.16	0.0346
308.533	0.0338
308.907	0.0335
309.281	0.0338
309.654	0.0326
310.028	0.0318
310.401	0.0311
310.775	0.0309
311.148	0.0307
311.522	0.0295
311.895	0.0287
312.268	0.0294
312.642	0.0296
313.015	0.0315
313.388	0.0304
313.761	0.0303
314.135	0.0305
314.508	0.0309
314.881	0.0309
315.254	0.0289
315.627	0.0282
316	0.0286
316.373	0.0286
316.746	0.0283
317.118	0.0267
317.491	0.0267
317.864	0.0285
318.237	0.0285
318.61	0.0277
318.982	0.0245
319.355	0.0247
319.727	0.0255
320.1	0.0275
320.473	0.0269
320.845	0.0276
321.218	0.0262
321.59	0.0268
321.962	0.0247
322.335	0.0247
322.707	0.0249
323.079	0.0258
323.452	0.0268
323.824	0.0277
324.196	0.0277
324.568	0.0266
324.94	0.026
325.312	0.0273
325.684	0.0274
326.056	0.0253
326.428	0.0236
326.8	0.0224
327.172	0.0234
327.544	0.0224
327.915	0.0214
328.287	0.022
328.659	0.0237
329.031	0.0255
329.402	0.0235
329.774	0.0211
330.145	0.0187
330.517	0.0188
330.888	0.0191
331.26	0.0206
331.631	0.0211
332.003	0.0215
332.374	0.0201
332.745	0.0198
333.117	0.0192
333.488	0.0196
333.859	0.0199
334.23	0.0195
334.601	0.0191
334.972	0.0192
335.343	0.0206
335.714	0.0208
336.085	0.0194
336.456	0.0173
336.827	0.0178
337.198	0.0192
337.569	0.019
337.94	0.0189
338.31	0.0188
338.681	0.02
339.052	0.0191
339.422	0.0183
339.793	0.0179
340.164	0.0174
340.534	0.0172
340.905	0.0145
341.275	0.0145
341.645	0.0143
342.016	0.0179
342.386	0.0187
342.756	0.0196
343.127	0.0173
343.497	0.0158
343.867	0.0152
344.237	0.0165
344.607	0.0163
344.977	0.0161
345.347	0.0169
345.717	0.0163
346.087	0.0159
346.457	0.0155
346.827	0.0168
347.197	0.0172
347.567	0.014
347.936	0.0152
348.306	0.0149
348.676	0.0175
349.046	0.017
349.415	0.0165
349.785	0.0158
350.154	0.0145
350.524	0.0153
350.893	0.0132
351.263	0.0131
351.632	0.0124
352.001	0.0134
352.371	0.014
352.74	0.0143
353.109	0.0149
353.478	0.0141
353.847	0.0143
354.217	0.014
354.586	0.0123
354.955	0.0129
355.324	0.0134
355.693	0.016
356.062	0.0156
356.43	0.0153
356.799	0.0138
357.168	0.0121
357.537	0.0122
357.906	0.0116
358.274	0.0126
358.643	0.0109
359.011	0.011
359.38	0.0097
359.749	0.0099
360.117	0.0097
360.486	0.0114
360.854	0.0117
361.222	0.0126
361.591	0.0096
361.959	0.0113
362.327	0.0119
362.695	0.0133
363.064	0.0112
363.432	0.0109
363.8	0.0109
364.168	0.0108
364.536	0.0109
364.904	0.0099
365.272	0.0098
365.64	0.01
366.008	0.0103
366.376	0.0099
366.743	0.0081
367.111	0.009
367.479	0.0088
367.847	0.0101
368.214	0.0103
368.582	0.0107
368.949	0.0123
369.317	0.0112
369.684	0.0105
370.052	0.0087
370.419	0.0092
370.787	0.0102
371.154	0.0101
371.521	0.0095
371.889	0.0091
372.256	0.0079
372.623	0.008
372.99	0.0071
373.357	0.0076
373.724	0.0077
374.091	0.0081
374.458	0.0078
374.825	0.009
375.192	0.0086
375.559	0.0084
375.926	0.0061
376.293	0.0067
376.659	0.0069
377.026	0.007
377.393	0.0074
377.759	0.0074
378.126	0.0079
378.492	0.0073
378.859	0.0076
379.225	0.0074
379.592	0.0096
379.958	0.0091
380.325	0.0088
380.691	0.0079
381.057	0.0072
381.423	0.0079
381.79	0.0059
382.156	0.0062
382.522	0.0065
382.888	0.0071
383.254	0.0079
383.62	0.0075
383.986	0.0072
384.352	0.0066
384.718	0.0052
385.084	0.0062
385.449	0.0061
385.815	0.0077
386.181	0.0077
386.547	0.0091
386.912	0.0086
387.278	0.0084
387.643	0.0065
388.009	0.0074
388.374	0.0049
388.74	0.008
389.105	0.0057
389.471	0.007
389.836	0.006
390.201	0.0076
390.566	0.0101
390.932	0.0089
391.297	0.0071
391.662	0.0045
392.027	0.0039
392.392	0.0034
392.757	0.0041
393.122	0.0044
393.487	0.0055
393.852	0.0038
394.217	0.003
394.582	0.0059
394.946	0.0061
395.311	0.0057
395.676	0.0023
396.04	0.0025
396.405	0.0046
396.77	0.0069
397.134	0.0057
397.499	0.0053
397.863	0.0039
398.227	0.0058
398.592	0.0041
398.956	0.0051
399.32	0.0044
399.685	0.005
400.049	0.0048
400.413	0.0043
400.777	0.0036
401.141	0.0024
401.505	0.004
401.869	0.0041
402.233	0.004
402.597	0.0007
402.961	-0.001
403.325	0.0005
403.689	0.0033
404.053	0.0055
404.416	0.0035
404.78	0.0034
405.144	0.0041
405.507	0.0058
405.871	0.0049
406.234	0.0041
406.598	0.0022
406.961	0.0017
407.325	0.0019
407.688	0.0027
408.051	0.0034
408.415	0.0059
408.778	0.0058
409.141	0.0059
409.504	0.0042
409.867	0.0028
410.23	0.0033
410.593	0.0013
410.956	0.0027
411.319	0.003
411.682	0.0022
412.045	0.0034
412.408	0.0019
412.771	0.0038
413.134	0.0016
413.496	0.0011
413.859	0.0002
414.222	0.0029
414.584	0.006
414.947	0.0062
415.309	0.0038
415.672	0.0037
416.034	0.0046
416.396	0.0033
416.759	0.0026
417.121	0.0031
417.483	0.0038
417.846	0.0026
418.208	0.0015
418.57	0.0012
418.932	-0.0016
419.294	-0.0006
419.656	-0.0011
420.018	0.0012
420.38	-0.0002
420.742	0.0009
421.104	0.0016
421.466	0.0021
421.827	0.0012
422.189	0.0013
422.551	0.0016
422.912	0.0037
423.274	0.005
423.636	0.005
423.997	0.0056
424.359	0.0052
424.72	0.0065
425.081	0.0063
425.443	0.0052
425.804	0.0034
426.165	0.0035
426.527	0.0029
426.888	0.0022
427.249	0.0027
427.61	0.0041
427.971	0.0036
428.332	0.0006
428.693	-0.001
429.054	-0.0004
429.415	0.0011
429.776	0.0001
430.137	0.0001
430.498	0.0011
430.858	0.0045
431.219	0.0053
431.58	0.004
431.94	0.0038
432.301	0.0022
432.661	0.0003
433.022	-0.0027
433.382	-0.0004
433.743	0.0035
434.103	0.0048
434.463	0.0036
434.824	0.002
435.184	0.0044
435.544	0.0064
435.904	0.0073
436.264	0.0057
436.624	0.0048
436.985	0.0008
437.345	0.0008
437.704	0.0002
438.064	0.0025
438.424	0.0024
438.784	0.0015
439.144	0.0006
439.504	0.0004
439.863	0.0001
440.223	0.0013
440.583	0.0015
440.942	0.0015
441.302	0.0014
441.661	0.0013
442.021	0.0039
442.38	0.0034
442.739	0.0023
443.099	-0.0013
443.458	0.0002
443.817	0.0016
444.176	0.0038
444.536	0.0036
444.895	0.0029
445.254	0.0017
445.613	0.0012
445.972	0.0011
446.331	0.0005
446.69	-0.0007
447.049	-0.0017
447.407	-0.0006
447.766	0.0005
448.125	0.0026
448.484	0.0027
448.842	0.0022
449.201	0.0026
449.559	-0.0003
449.918	0.0003
450.276	0.0002
450.635	0.0026
450.993	0.0024
451.352	0.0012
451.71	0.0018
452.068	0.002
452.426	0.0019
452.785	0.0025
453.143	0.0016
453.501	0.0018
453.859	-0.003
454.217	-0.0028
454.575	-0.0053
454.933	-0.0013
455.291	-0.0008
455.649	0.0014
456.006	0.0004
456.364	-0.0002
456.722	-0.0001
457.079	0.0021
457.437	0.0034
457.795	0.0037
458.152	0.0027
458.51	0.001
458.867	0.0011
459.225	0.0002
459.582	0.0006
459.939	-0.0011
460.297	-0.0008
460.654	0.0009
461.011	0.0023
461.368	0.0038
461.725	0.0023
462.082	0.0032
462.44	-0.0014
462.797	-0.0013
463.153	-0.0008
463.51	0.0025
463.867	0.0045
464.224	0.0057
464.581	0.0054
464.938	0.0037
465.294	0.0017
465.651	0.0041
466.008	0.0025
466.364	0.0028
466.721	0.0001
467.077	0.0005
467.434	0.0012
467.79	0.0031
468.146	0.0027
468.503	0.0029
468.859	0.0007
469.215	0.0003
469.571	-0.0024
469.927	-0.0001
470.284	0.001
470.64	0.003
470.996	0.0014
471.352	0.0007
471.707	-0.0016
472.063	0.0002
472.419	0.003
472.775	0.0043
473.131	0.0046
473.486	0.0016
473.842	-0.0001
474.198	-0.0017
474.553	0.0002
474.909	0.0027
475.264	0.0029
475.62	0.0024
475.975	0.0012
476.331	0.0017
476.686	0.0025
477.041	0.0007
477.396	-0.001
477.752	-0.0022
478.107	-0.0013
478.462	-0.0021
478.817	-0.0021
479.172	0.0002
479.527	0.0011
479.882	-0.0005
480.237	-0.004
480.591	-0.0047
480.946	0.0004
481.301	0.0032
481.656	0.0049
482.01	-0.0002
482.365	0.0002
482.72	-0.0006
483.074	0.0012
483.429	-0.0004
483.783	0.0008
484.137	0.0005
484.492	-0.0007
484.846	-0.0021
485.2	-0.0004
485.555	0.0004
485.909	0.0007
486.263	-0.0014
486.617	0.0004
486.971	0.0017
487.325	0.0036
487.679	0.0022
488.033	0.0014
488.387	0.0023
488.741	0.0026
489.094	0.0012
489.448	-0.0012
489.802	-0.0003
490.156	-0.001
490.509	0.0001
490.863	-0.0007
491.216	-0.0006
491.57	-0.0027
491.923	-0.0026
492.277	-0.0013
492.63	0.0009
492.983	0.0017
493.337	0.003
493.69	0.0017
494.043	-0.0016
494.396	-0.0035
494.749	-0.0022
495.102	-0.0012
495.455	-0.0017
495.808	-0.0027
496.161	-0.0023
496.514	-0.0011
496.867	-0.0012
497.22	-0.0015
497.572	-0.0027
497.925	-0.0024
498.278	-0.0017
498.63	-0.0021
498.983	-0.0027
499.335	-0.0026
499.688	-0.0018
500.04	-0.0025
500.393	-0.0039
500.745	-0.0039
501.097	-0.0043
501.449	-0.0026
501.802	-0.0035
502.154	-0.0034
502.506	-0.0045
502.858	-0.0039
503.21	-0.0012
503.562	-0.0006
503.914	0.0011
504.266	-0.0004
504.618	-0.0013
504.969	-0.0018
505.321	-0.0018
505.673	-0.0011
506.025	-0.0016
506.376	-0.0016
506.728	0.0013
507.079	0.0018
507.431	0.0012
507.782	-0.0012
508.134	-0.0016
508.485	-0.0006
508.836	0.0006
509.188	-0.0011
509.539	-0.0044
509.89	-0.0039
510.241	-0.004
510.592	-0.003
510.943	-0.0059
511.294	-0.0028
511.645	-0.0014
511.996	-0.0001
512.347	-0.0027
512.698	-0.0016
513.049	-0.0012
513.399	0.0013
513.75	0.0007
514.101	0.0018
514.451	0.0002
514.802	-0.0015
515.152	-0.0035
515.503	-0.0023
515.853	0.0009
516.203	0.0008
516.554	0.0012
516.904	-0.0004
517.254	-0.0008
517.604	-0.0026
517.955	-0.004
518.305	-0.0065
518.655	-0.005
519.005	-0.0041
519.355	-0.0008
519.705	-0.0047
520.055	-0.0057
520.404	-0.0071
520.754	-0.0055
521.104	-0.0047
521.454	-0.0041
521.803	-0.0037
522.153	-0.0026
522.502	-0.0023
522.852	0.0002
523.201	0.0001
523.551	-0
523.9	-0.0052
524.249	-0.0064
524.599	-0.0056
524.948	-0.0013
525.297	-0.0008
525.646	-0.0043
525.995	-0.0051
526.344	-0.0026
526.694	0.0004
527.042	-0.0013
527.391	-0.0066
527.74	-0.0061
528.089	-0.0043
528.438	-0.0028
528.787	-0.0059
529.135	-0.0077
529.484	-0.0067
529.833	-0.0034
530.181	-0.003
530.53	-0.0035
530.878	-0.0066
531.227	-0.0059
531.575	-0.0068
531.923	-0.0057
532.271	-0.0075
532.62	-0.0042
532.968	-0.0027
533.316	-0.0022
533.664	-0.0008
534.012	-0.0002
534.36	0.0015
534.708	-0.0011
535.056	-0.0025
535.404	-0.0018
535.752	0.0004
536.1	-0.0006
536.447	-0.0025
536.795	-0.0066
537.143	-0.0052
537.49	-0.0053
537.838	-0.0049
538.185	-0.005
538.533	-0.0046
538.88	-0.0038
539.228	-0.0024
539.575	-0.0026
539.922	-0.0027
540.269	-0.0069
540.617	-0.004
540.964	-0.0053
541.311	-0.003
541.658	-0.0042
542.005	-0.0038
542.352	-0.0048
542.699	-0.0047
543.045	-0.0054
543.392	-0.0045
543.739	-0.0066
544.086	-0.0078
544.432	-0.0092
544.779	-0.0094
545.126	-0.0073
545.472	-0.0069
545.819	-0.0055
546.165	-0.005
546.512	-0.0066
546.858	-0.0085
547.204	-0.0099
547.55	-0.0076
547.897	-0.0079
548.243	-0.0065
548.589	-0.0079
548.935	-0.0063
549.281	-0.0053
549.627	-0.0021
549.973	-0.0023
550.319	-0.0035
550.665	-0.0044
551.01	-0.0036
551.356	-0.0021
551.702	-0.0022
552.048	-0.0004
552.393	-0.0024
552.739	-0.0044
553.084	-0.0073
553.43	-0.0065
553.775	-0.0045
554.12	-0.0024
554.466	-0.003
554.811	-0.0038
555.156	-0.0069
555.502	-0.0077
555.847	-0.0065
556.192	-0.0039
556.537	-0.0031
556.882	-0.0046
557.227	-0.0078
557.572	-0.0072
557.917	-0.0031
558.261	-0.001
558.606	-0.0002
558.951	-0.006
559.295	-0.0056
559.64	-0.0058
559.985	-0.0024
560.329	-0.0037
560.674	-0.0018
561.018	-0.0018
561.363	0.0004
561.707	-0.002
562.051	-0.0038
562.395	-0.0047
562.74	-0.0075
563.084	-0.0048
563.428	-0.0039
563.772	-0.005
564.116	-0.0073
564.46	-0.0093
564.804	-0.0068
565.148	-0.008
565.492	-0.0071
565.835	-0.0081
566.179	-0.0051
566.523	-0.0035
566.866	-0.0034
567.21	-0.0053
567.554	-0.0074
567.897	-0.0064
568.24	-0.0044
568.584	-0.0043
568.927	-0.0065
569.271	-0.0073
569.614	-0.0067
569.957	-0.0052
570.3	-0.0068
570.643	-0.0079
570.986	-0.0087
571.329	-0.005
571.672	-0.0028
572.015	-0.0039
572.358	-0.0062
572.701	-0.0096
573.044	-0.0102
573.387	-0.0107
573.729	-0.0094
574.072	-0.0064
574.414	-0.0079
574.757	-0.0075
575.099	-0.0096
575.442	-0.0088
575.784	-0.0072
576.127	-0.0052
576.469	-0.0056
576.811	-0.0067
577.153	-0.0058
577.496	-0.0055
577.838	-0.0042
578.18	-0.007
578.522	-0.0085
578.864	-0.012
579.206	-0.0097
579.548	-0.0084
579.889	-0.009
580.231	-0.0086
580.573	-0.0083
580.915	-0.0081
581.256	-0.0096
581.598	-0.009
581.939	-0.0076
582.281	-0.0053
582.622	-0.0057
582.964	-0.0041
583.305	-0.0057
583.646	-0.0044
583.988	-0.0067
584.329	-0.0068
584.67	-0.0097
585.011	-0.0097
585.352	-0.0108
585.693	-0.008
586.034	-0.0086
586.375	-0.0079
586.716	-0.0087
587.057	-0.0083
587.398	-0.0097
587.738	-0.0091
588.079	-0.0075
588.42	-0.004
588.76	-0.0056
589.101	-0.0081
589.441	-0.0099
589.782	-0.0078
590.122	-0.007
590.463	-0.0076
590.803	-0.0073
591.143	-0.0043
591.483	-0.0054
591.823	-0.0053
592.164	-0.0068
592.504	-0.0065
592.844	-0.0084
593.184	-0.0088
593.523	-0.0086
593.863	-0.0063
594.203	-0.0078
594.543	-0.0053
594.883	-0.0077
595.222	-0.0071
595.562	-0.0079
595.901	-0.0081
596.241	-0.0088
596.58	-0.0086
596.92	-0.0071
597.259	-0.0062
597.599	-0.0062
597.938	-0.0095
598.277	-0.0086
598.616	-0.0108
598.955	-0.0085
599.295	-0.01
599.634	-0.0079
599.973	-0.0081
600.312	-0.0071
600.65	-0.007
600.989	-0.0065
601.328	-0.0042
601.667	-0.0053
602.005	-0.0061
602.344	-0.0091
602.683	-0.0088
603.021	-0.0099
603.36	-0.011
603.698	-0.012
604.037	-0.012
604.375	-0.0078
604.713	-0.0065
605.052	-0.0048
605.39	-0.0086
605.728	-0.0093
606.066	-0.0099
606.404	-0.0101
606.742	-0.0113
607.08	-0.0101
607.418	-0.0103
607.756	-0.008
608.094	-0.0101
608.431	-0.0081
608.769	-0.0077
609.107	-0.0089
609.444	-0.0101
609.782	-0.011
610.12	-0.0072
610.457	-0.0067
610.794	-0.008
611.132	-0.0096
611.469	-0.011
611.806	-0.0101
612.144	-0.0074
612.481	-0.0064
612.818	-0.0042
613.155	-0.0081
613.492	-0.0086
613.829	-0.0094
614.166	-0.0084
614.503	-0.006
614.84	-0.0084
615.176	-0.0097
615.513	-0.0108
615.85	-0.0119
616.187	-0.0084
616.523	-0.0079
616.86	-0.0093
617.196	-0.0129
617.533	-0.012
617.869	-0.0097
618.205	-0.0083
618.542	-0.0083
618.878	-0.0091
619.214	-0.01
619.55	-0.0105
619.886	-0.0074
620.222	-0.0086
620.558	-0.0092
620.894	-0.0093
621.23	-0.0083
621.566	-0.0098
621.902	-0.0089
622.238	-0.009
622.573	-0.0021
622.909	-0.0063
623.244	-0.0059
623.58	-0.01
623.916	-0.0101
624.251	-0.0092
624.586	-0.0113
624.922	-0.0092
625.257	-0.0084
625.592	-0.0061
625.927	-0.0025
626.263	-0.0054
626.598	-0.0084
626.933	-0.013
627.268	-0.0115
627.603	-0.0097
627.938	-0.0076
628.272	-0.0088
628.607	-0.0104
628.942	-0.0109
629.277	-0.0057
629.611	-0.0066
629.946	-0.0076
630.281	-0.0101
630.615	-0.0052
630.949	-0.0031
631.284	-0.007
631.618	-0.0083
631.953	-0.0072
632.287	-0.004
632.621	-0.0045
632.955	-0.0067
633.289	-0.0061
633.623	-0.0066
633.957	-0.0066
634.291	-0.0099
634.625	-0.0101
634.959	-0.0106
635.293	-0.0077
635.627	-0.0107
635.96	-0.0102
636.294	-0.0126
636.627	-0.0102
636.961	-0.0087
637.294	-0.0097
637.628	-0.0103
637.961	-0.0125
638.295	-0.0087
638.628	-0.0105
638.961	-0.009
639.294	-0.0079
639.628	-0.0019
639.961	-0.001
640.294	-0.003
640.627	-0.0088
640.96	-0.0111
641.293	-0.0119
641.625	-0.0124
641.958	-0.0151
642.291	-0.0105
642.624	-0.0051
642.956	-0.002
643.289	-0.0042
643.621	-0.0117
643.954	-0.0146
644.286	-0.021
644.619	-0.0143
644.951	-0.0118
645.283	-0.0066
645.616	-0.0072
645.948	-0.0093
646.28	-0.0085
646.612	-0.0081
646.944	-0.0021
647.276	-0.0005
647.608	-0.004
647.94	-0.0063
648.272	-0.0079
648.603	-0.0031
648.935	-0.0051
649.267	-0.0034
649.598	-0.0062
649.93	-0.0069
650.261	-0.0103
650.593	-0.0061
650.924	-0.0051
651.256	-0.0033
651.587	-0.0063
651.918	-0.0044
652.25	-0.0079
652.581	-0.0106
652.912	-0.0119
653.243	-0.0103
653.574	-0.0095
653.905	-0.0127
654.236	-0.011
654.567	-0.0103
654.897	-0.0099
655.228	-0.0072
655.559	-0.005
655.89	-0.0073
656.22	-0.0087
656.551	-0.0071
656.881	-0.0016
657.212	-0.0033
657.542	-0.0066
657.872	-0.0094
658.203	-0.0073
658.533	-0.0051
658.863	-0.0076
659.193	-0.0119
659.523	-0.0135
659.853	-0.017
660.183	-0.0142
660.513	-0.0121
660.843	-0.0071
661.173	-0.0065
661.503	-0.0113
661.833	-0.0138
662.162	-0.013
662.492	-0.0076
662.822	-0.0103
663.151	-0.0131
663.481	-0.0166
663.81	-0.018
664.139	-0.0131
664.469	-0.0139
664.798	-0.0084
665.127	-0.015
665.456	-0.011
665.785	-0.0131
666.114	-0.014
666.443	-0.0183
666.772	-0.0126
667.101	-0.0081
667.43	-0.0056
667.759	-0.0097
668.088	-0.0097
668.416	-0.0142
668.745	-0.0158
669.074	-0.0159
669.402	-0.0174
669.731	-0.0165
670.059	-0.0156
670.388	-0.0082
670.716	-0.0091
671.044	-0.0096
671.372	-0.0111
671.701	-0.0107
672.029	-0.0085
672.357	-0.0092
672.685	-0.0103
673.013	-0.0102
673.341	-0.0089
673.669	-0.0084
673.996	-0.0127
674.324	-0.0162
674.652	-0.0149
674.98	-0.0114
675.307	-0.0098
675.635	-0.0107
675.962	-0.0097
676.29	-0.0078
676.617	-0.0065
676.945	-0.0071
677.272	-0.0056
677.599	-0.0046
677.926	-0.0057
678.253	-0.0044
678.581	-0.0062
678.908	-0.0097
679.235	-0.0116
679.561	-0.0083
679.888	-0.003
680.215	-0.0028
680.542	-0.0035
680.869	-0.0079
681.195	-0.0081
681.522	-0.0088
681.849	-0.0085
682.175	-0.0106
682.502	-0.0129
682.828	-0.012
683.154	-0.0137
683.481	-0.0112
683.807	-0.0117
684.133	-0.0104
684.459	-0.0091
684.785	-0.0075
685.111	-0.0091
685.437	-0.0125
685.763	-0.0145
686.089	-0.0153
686.415	-0.0193
686.741	-0.018
687.067	-0.01
687.392	-0.0073
687.718	-0.0094
688.043	-0.0124
688.369	-0.0117
688.694	-0.0099
689.02	-0.0146
689.345	-0.012
689.67	-0.014
689.996	-0.0087
690.321	-0.0093
690.646	-0.0069
690.971	-0.0099
691.296	-0.0127
691.621	-0.016
691.946	-0.0112
692.271	-0.0109
692.596	-0.004
692.921	-0.0024
693.245	0.0008
693.57	-0.0041
693.895	-0.0068
694.219	-0.0083
694.544	-0.0079
694.868	-0.0106
695.193	-0.013
695.517	-0.0141
695.841	-0.0163
696.166	-0.0154
696.49	-0.0191
696.814	-0.0142
697.138	-0.0141
697.462	-0.0094
697.786	-0.0098
698.11	-0.008
698.434	-0.0068
698.758	-0.0089
699.081	-0.0133
699.405	-0.0144
699.729	-0.0114
700.052	-0.014
700.376	-0.012
700.7	-0.0122
701.023	-0.0095
701.346	-0.0112
701.67	-0.0129
701.993	-0.0131
702.316	-0.0095
702.639	-0.0114
702.963	-0.0145
703.286	-0.0171
703.609	-0.0165
703.932	-0.0146
704.255	-0.0112
704.578	-0.0068
704.9	-0.0013
705.223	-0.0045
705.546	-0.0054
705.868	-0.0081
706.191	-0.0128
706.514	-0.0156
706.836	-0.0115
707.159	-0.0055
707.481	-0.0029
707.803	-0.011
708.126	-0.0137
708.448	-0.0198
708.77	-0.0148
709.092	-0.0143
709.414	-0.0104
709.736	-0.0089
710.058	-0.0075
710.38	-0.0106
710.702	-0.0112
711.024	-0.0144
711.345	-0.0105
711.667	-0.0118
711.989	-0.0104
712.31	-0.0077
712.632	-0.0091
712.953	-0.0056
713.275	-0.0073
713.596	-0.0038
713.917	-0.0106
714.239	-0.0141
714.56	-0.017
714.881	-0.0078
715.202	-0.009
715.523	-0.0056
715.844	-0.0055
716.165	-0.0047
716.486	-0.0088
716.807	-0.0144
717.128	-0.0161
717.448	-0.016
717.769	-0.0149
718.09	-0.0101
718.41	-0.0069
718.731	-0.0052
719.051	-0.0076
719.372	-0.0046
719.692	-0.0063
720.012	-0.003
720.332	-0.009
720.653	-0.0078
720.973	-0.0092
721.293	-0.0072
721.613	-0.0062
721.933	-0.0038
722.253	-0.0045
722.573	-0.0059
722.892	-0.0109
723.212	-0.0138
723.532	-0.0192
723.851	-0.0158
724.171	-0.0138
724.491	-0.0155
724.81	-0.0206
725.129	-0.0149
725.449	-0.0093
725.768	-0.0078
726.087	-0.0156
726.407	-0.0121
726.726	-0.0083
727.045	-0.0037
727.364	-0.0094
727.683	-0.0076
728.002	-0.0091
728.321	-0.0067
728.64	-0.0089
728.958	-0.0084
729.277	-0.01
729.596	-0.0097
729.914	-0.0124
730.233	-0.0145
730.551	-0.0199
730.87	-0.0202
731.188	-0.0122
731.507	-0.0101
731.825	-0.0087
732.143	-0.0212
732.461	-0.0204
732.779	-0.016
733.097	-0.0114
733.415	-0.0084
733.733	-0.0109
734.051	-0.0086
734.369	-0.0093
734.687	-0.0125
735.005	-0.0104
735.322	-0.0103
735.64	-0.013
735.957	-0.013
736.275	-0.0131
736.592	-0.0063
736.91	-0.006
737.227	-0.0077
737.544	-0.0098
737.862	-0.0094
738.179	-0.0084
738.496	-0.0045
738.813	-0.0085
739.13	-0.0113
739.447	-0.014
739.764	-0.0148
740.081	-0.0161
740.398	-0.0149
740.714	-0.0098
741.031	-0.0067
741.348	-0.0079
741.664	-0.0118
741.981	-0.0148
742.297	-0.0118
742.614	-0.0133
742.93	-0.01
743.246	-0.0129
743.563	-0.0121
743.879	-0.0181
744.195	-0.0186
744.511	-0.0214
744.827	-0.0148
745.143	-0.014
745.459	-0.0098
745.775	-0.0097
746.091	-0.0102
746.406	-0.009
746.722	-0.0087
747.038	-0.0097
747.353	-0.0126
747.669	-0.0144
747.984	-0.0163
748.3	-0.0146
748.615	-0.0191
748.93	-0.0142
749.246	-0.0142
749.561	-0.0097
749.876	-0.0146
750.191	-0.0174
750.506	-0.0206
750.821	-0.0149
751.136	-0.0115
751.451	-0.0057
751.766	-0.0114
752.08	-0.0159
752.395	-0.0185
752.71	-0.0155
753.024	-0.0095
753.339	-0.0033
753.653	-0.0044
753.968	-0.0106
754.282	-0.0167
754.596	-0.0113
754.911	-0.0091
755.225	-0.0041
755.539	-0.0125
755.853	-0.0115
756.167	-0.0122
756.481	-0.0123
756.795	-0.0161
757.109	-0.0167
757.423	-0.0137
757.736	-0.0113
758.05	-0.0133
758.364	-0.0121
758.677	-0.0108
758.991	-0.0118
759.304	-0.0137
759.618	-0.0125
759.931	-0.0132
760.244	-0.0145
760.558	-0.0158
760.871	-0.0147
761.184	-0.0112
761.497	-0.0069
761.81	-0.0056
762.123	-0.0101
762.436	-0.013
762.749	-0.0145
763.062	-0.0092
763.374	-0.0136
763.687	-0.0165
764	-0.0158
764.312	-0.0075
764.625	-0.0012
764.937	-0.006
765.25	-0.0108
765.562	-0.0131
765.874	-0.0105
766.186	-0.007
766.499	-0.0071
766.811	-0.0108
767.123	-0.0169
767.435	-0.0189
767.747	-0.0153
768.059	-0.0118
768.37	-0.0109
768.682	-0.0107
768.994	-0.0169
769.306	-0.0161
769.617	-0.0179
769.929	-0.0106
770.24	-0.0066
770.552	-0.009
770.863	-0.0139
771.174	-0.0173
771.486	-0.016
771.797	-0.0156
772.108	-0.0162
772.419	-0.0137
772.73	-0.0106
773.041	-0.0076
773.352	-0.0068
773.663	-0.0106
773.974	-0.0113
774.285	-0.0149
774.595	-0.0155
774.906	-0.0137
775.217	-0.0097
775.527	-0.0043
775.838	-0.0101
776.148	-0.0118
776.458	-0.0126
776.769	-0.0113
777.079	-0.0102
777.389	-0.0139
777.699	-0.0115
778.009	-0.0102
778.319	-0.0091
778.629	-0.0078
778.939	-0.0099
779.249	-0.0076
779.559	-0.0125
779.869	-0.0176
780.178	-0.0224
780.488	-0.0228
780.798	-0.0191
781.107	-0.0184
781.417	-0.0212
781.726	-0.0234
782.035	-0.0189
782.345	-0.0122
782.654	-0.0092
782.963	-0.0104
783.272	-0.0154
783.581	-0.0149
783.89	-0.0149
784.199	-0.0105
784.508	-0.0162
784.817	-0.0219
785.126	-0.0245
785.434	-0.0183
785.743	-0.0095
786.052	-0.0097
786.36	-0.0139
786.669	-0.013
786.977	-0.0146
787.285	-0.0114
787.594	-0.0173
787.902	-0.0162
788.21	-0.017
788.518	-0.0128
788.826	-0.0101
789.135	-0.0102
789.442	-0.0152
789.75	-0.0145
790.058	-0.0156
790.366	-0.0142
790.674	-0.0231
790.981	-0.0185
791.289	-0.0178
791.597	-0.0126
791.904	-0.0192
792.212	-0.0203
792.519	-0.0172
792.826	-0.0116
793.134	-0.0088
793.441	-0.0092
793.748	-0.008
794.055	-0.0086
794.362	-0.0127
794.669	-0.0169
794.976	-0.0154
795.283	-0.0127
795.59	-0.0082
795.897	-0.0094
796.203	-0.0121
796.51	-0.0143
796.817	-0.0167
797.123	-0.0129
797.43	-0.0095
797.736	-0.0102
798.042	-0.0143
798.349	-0.0156
798.655	-0.0108
798.961	-0.0127
799.267	-0.0168
799.573	-0.0185
799.879	-0.0172
800.185	-0.0143
800.491	-0.0165
800.797	-0.0167
801.103	-0.0182
801.408	-0.0149
801.714	-0.0096
802.02	-0.0071
802.325	-0.007
802.631	-0.0101
802.936	-0.0119
803.242	-0.0127
803.547	-0.0147
803.852	-0.0157
804.157	-0.0193
804.462	-0.0178
804.768	-0.0197
805.073	-0.0164
805.378	-0.0134
805.682	-0.0124
805.987	-0.0107
806.292	-0.005
806.597	0.0002
806.902	-0.004
807.206	-0.012
807.511	-0.0178
807.815	-0.018
808.12	-0.017
808.424	-0.0119
808.728	-0.0087
809.033	-0.0084
809.337	-0.0168
809.641	-0.0136
809.945	-0.0169
810.249	-0.0082
810.553	-0.0106
810.857	-0.0108
811.161	-0.0084
811.465	-0.0084
811.768	-0.009
812.072	-0.0133
812.376	-0.0163
812.679	-0.0172
812.983	-0.0166
813.286	-0.0229
813.59	-0.0188
813.893	-0.0187
814.196	-0.0096
814.499	-0.0106
814.803	-0.015
815.106	-0.0251
815.409	-0.0248
815.712	-0.0197
816.015	-0.0108
816.318	-0.0177
816.62	-0.0215
816.923	-0.0187
817.226	-0.0132
817.528	-0.0109
817.831	-0.0124
818.133	-0.0149
818.436	-0.0185
818.738	-0.0216
819.041	-0.0192
819.343	-0.0156
819.645	-0.0165
819.947	-0.0108
820.249	-0.0155
820.551	-0.0134
820.853	-0.0161
821.155	-0.0162
821.457	-0.0127
821.759	-0.0181
822.061	-0.0112
822.362	-0.0127
822.664	-0.009
822.966	-0.0047
823.267	-0.0058
823.569	-0.0104
823.87	-0.0247
824.171	-0.0244
824.473	-0.0174
824.774	-0.0103
825.075	-0.0139
825.376	-0.0131
825.677	-0.0102
825.978	-0.009
826.279	-0.0171
826.58	-0.0141
826.881	-0.0212
827.181	-0.0149
827.482	-0.0224
827.783	-0.0176
828.083	-0.0153
828.384	-0.017
828.684	-0.019
828.985	-0.0163
829.285	-0.0134
829.585	-0.0101
829.885	-0.0212
830.185	-0.0264
830.486	-0.0237
830.786	-0.0121
831.086	-0.003
831.385	-0.0057
831.685	-0.0147
831.985	-0.0225
832.285	-0.0184
832.585	-0.019
832.884	-0.0152
833.184	-0.0168
833.483	-0.0184
833.783	-0.0194
834.082	-0.0226
834.381	-0.0245
834.681	-0.0235
834.98	-0.0204
835.279	-0.0224
835.578	-0.02
835.877	-0.0186
836.176	-0.0067
836.475	-0.001
836.774	-0.0046
837.072	-0.0106
837.371	-0.0043
837.67	-0.0015
837.968	0.0013
838.267	-0.0164
838.565	-0.0169
838.864	-0.0216
839.162	-0.0253
839.46	-0.0329
839.759	-0.0269
840.057	-0.0253
840.355	-0.0131
840.653	-0.0253
840.951	-0.0215
841.249	-0.0269
841.547	-0.0077
841.845	-0.0005
842.142	-0.0001
842.44	-0.0167
842.738	-0.0228
843.035	-0.0282
843.333	-0.0161
843.63	-0.0128
843.928	-0.002
844.225	-0.0051
844.522	-0.0054
844.82	-0.0154
845.117	-0.0077
845.414	-0.0053
845.711	0.0065
846.008	-0.0028
846.305	-0.0079
846.602	-0.0135
846.898	-0.0127
847.195	-0.0223
847.492	-0.0196
847.788	-0.0274
848.085	-0.0142
848.382	-0.0213
848.678	-0.0208
848.974	-0.0222
849.271	-0.013
849.567	-0.0071
849.863	-0.0149
850.159	-0.0353
850.455	-0.0297
850.751	-0.0189
851.047	-0.0073
851.343	-0.0201
851.639	-0.0197
851.935	-0.0208
852.23	-0.0093
852.526	-0.0163
852.822	-0.0107
853.117	-0.0138
853.413	-0.0107
853.708	-0.0259
854.003	-0.0155
854.299	0.001
854.594	0.0082
854.889	-0.0119
855.184	-0.024
855.479	-0.0107
855.774	0.013
856.069	0.0036
856.364	-0.0129
856.659	-0.0263
856.954	-0.014
857.248	-0.0013
857.543	-0.0033
857.837	-0.0093
858.132	-0.0106
858.426	-0.0193
858.721	-0.0185
859.015	-0.021
859.309	-0.0123
859.604	-0.0193
859.898	-0.0173
860.192	-0.0104
860.486	-0.0182
860.78	-0.0135
861.074	-0.0182
861.367	-0.0044
861.661	0.0017
861.955	0.0108
862.248	0.0163
862.542	0.0054
862.836	0.0003
863.129	-0.0214
863.422	-0.0153
863.716	-0.0021
864.009	0.0275
864.302	0.0091
864.595	-0.017
864.889	-0.0277
865.182	-0.0134
865.475	-0.002
865.767	-0.0131
866.06	-0.0085
866.353	-0.0102
866.646	0.0089
866.938	-0.0046
867.231	-0.008
867.524	-0.0157
867.816	-0.0102
868.109	-0.0007
868.401	-0.006
868.693	0.0005
868.985	-0.0185
869.278	-0.0284
869.57	-0.0305
869.862	-0.0274
870.154	-0.0237
870.446	-0.0368
870.738	-0.0443
871.029	-0.0561
871.321	-0.0513
871.613	-0.0279
871.904	-0.0054
872.196	0.0262
872.487	0.0218
872.779	0.0162
873.07	-0.0067
873.362	0.0116
873.653	0.0266
873.944	0.0072
874.235	-0.0383
874.526	-0.0473
874.817	-0.0419
875.108	-0.0125
875.399	-0.022
875.69	0.0037
875.981	-0.0007
876.271	0.0195
876.562	0.0004
876.853	0.0184
877.143	-0.0004
877.434	0.009
877.724	-0.0227
878.014	-0.0022
878.305	-0.0146
878.595	-0.0079
878.885	-0.0148
879.175	-0.0147
879.465	-0.0139
879.755	-0.018
880.045	-0.0031
880.335	0.003
880.624	0.0063
880.914	0.0063
