Data from 24SS06LI_072017_1b_Absorbance_17-35-42-599.txt Node
Date: Fri Jul 28 17:35:42 MDT 2017
User: Tank Lab
Spectrometer: FLMS01220
Trigger mode: 0
Integration Time (sec): 1.000000E-1
Scans to average: 10
Electric dark correction enabled: true
Nonlinearity correction enabled: false
Boxcar width: 1
XAxis mode: Wavelengths
Number of Pixels in Spectrum: 2048
>>>>>Begin Spectral Data<<<<<
179.47	1.5064
179.856	1.5064
180.241	-0
180.626	-0
181.011	-0.0914
181.396	-0.1196
181.781	0.1264
182.166	-0
182.551	0.4705
182.936	1.1426
183.321	-0
183.706	0.3945
184.091	-0.497
184.476	-0.3597
184.86	-0
185.245	-0.8462
185.63	0.0482
186.015	-0.0222
186.399	0.4562
186.784	-0
187.169	-0
187.553	-0
187.938	-0
188.322	-0.0199
188.707	-0.0014
189.091	0.0475
189.475	0.0928
189.86	0.0826
190.244	0.1086
190.629	0.1107
191.013	0.1599
191.397	0.2012
191.781	0.2527
192.165	0.2893
192.55	0.3015
192.934	0.3307
193.318	0.3461
193.702	0.3745
194.086	0.3847
194.47	0.3841
194.854	0.389
195.238	0.3898
195.622	0.3937
196.006	0.3829
196.389	0.3765
196.773	0.3687
197.157	0.3768
197.541	0.3724
197.924	0.3621
198.308	0.3501
198.692	0.3431
199.075	0.3418
199.459	0.3263
199.843	0.3183
200.226	0.3103
200.61	0.3185
200.993	0.3141
201.376	0.3074
201.76	0.2941
202.143	0.2916
202.527	0.2821
202.91	0.2793
203.293	0.2726
203.676	0.2745
204.059	0.2694
204.443	0.2677
204.826	0.2685
205.209	0.2717
205.592	0.2726
205.975	0.2691
206.358	0.2651
206.741	0.2582
207.124	0.2591
207.507	0.2535
207.89	0.2566
208.273	0.252
208.655	0.2514
209.038	0.2457
209.421	0.2415
209.804	0.2414
210.186	0.243
210.569	0.243
210.951	0.2413
211.334	0.2362
211.717	0.2349
212.099	0.2303
212.482	0.2316
212.864	0.2278
213.246	0.2299
213.629	0.2265
214.011	0.2278
214.393	0.2241
214.776	0.2224
215.158	0.2167
215.54	0.215
215.922	0.2157
216.305	0.2166
216.687	0.2128
217.069	0.2068
217.451	0.2042
217.833	0.2024
218.215	0.1988
218.597	0.1959
218.979	0.191
219.361	0.189
219.742	0.186
220.124	0.1866
220.506	0.1838
220.888	0.1809
221.27	0.1759
221.651	0.174
222.033	0.1719
222.415	0.1679
222.796	0.1646
223.178	0.1614
223.559	0.1603
223.941	0.1578
224.322	0.1551
224.704	0.1532
225.085	0.1512
225.466	0.1473
225.848	0.1445
226.229	0.1422
226.61	0.1421
226.992	0.1402
227.373	0.1384
227.754	0.136
228.135	0.1332
228.516	0.131
228.897	0.1276
229.278	0.1276
229.659	0.1258
230.04	0.1242
230.421	0.1202
230.802	0.1169
231.183	0.1183
231.564	0.1184
231.944	0.1182
232.325	0.1141
232.706	0.113
233.087	0.112
233.467	0.1117
233.848	0.1106
234.229	0.1095
234.609	0.1091
234.99	0.1065
235.37	0.1068
235.751	0.1054
236.131	0.105
236.511	0.1044
236.892	0.1017
237.272	0.1
237.652	0.0978
238.033	0.0992
238.413	0.1006
238.793	0.1
239.173	0.0983
239.553	0.0967
239.933	0.0959
240.313	0.0946
240.694	0.0915
241.074	0.0885
241.453	0.0877
241.833	0.0886
242.213	0.0894
242.593	0.0877
242.973	0.0876
243.353	0.0862
243.732	0.087
244.112	0.0867
244.492	0.0868
244.872	0.0862
245.251	0.0863
245.631	0.0869
246.01	0.0877
246.39	0.0869
246.769	0.0861
247.149	0.0849
247.528	0.0871
247.908	0.0867
248.287	0.0859
248.666	0.0827
249.045	0.0824
249.425	0.0827
249.804	0.0816
250.183	0.082
250.562	0.0813
250.941	0.0822
251.32	0.0809
251.699	0.08
252.078	0.079
252.457	0.0785
252.836	0.0787
253.215	0.0797
253.594	0.0795
253.973	0.0805
254.352	0.079
254.731	0.0794
255.109	0.0773
255.488	0.0774
255.867	0.0771
256.245	0.0768
256.624	0.0759
257.002	0.075
257.381	0.074
257.759	0.0734
258.138	0.0723
258.516	0.0742
258.895	0.0735
259.273	0.0746
259.651	0.0722
260.03	0.0732
260.408	0.0723
260.786	0.0733
261.164	0.073
261.542	0.073
261.921	0.0719
262.299	0.0733
262.677	0.0739
263.055	0.0739
263.433	0.0719
263.811	0.0703
264.188	0.0704
264.566	0.0705
264.944	0.0714
265.322	0.0716
265.7	0.0711
266.077	0.0699
266.455	0.0688
266.833	0.0697
267.21	0.0693
267.588	0.0697
267.966	0.068
268.343	0.0687
268.721	0.0688
269.098	0.0684
269.475	0.067
269.853	0.0663
270.23	0.0669
270.607	0.0663
270.985	0.0667
271.362	0.0654
271.739	0.0655
272.116	0.0644
272.494	0.0642
272.871	0.0642
273.248	0.0639
273.625	0.0617
274.002	0.0601
274.379	0.0592
274.756	0.0609
275.132	0.0609
275.509	0.0603
275.886	0.0595
276.263	0.0604
276.64	0.0619
277.016	0.0611
277.393	0.0602
277.77	0.0575
278.146	0.0573
278.523	0.0576
278.899	0.0579
279.276	0.0578
279.652	0.0566
280.029	0.0571
280.405	0.0567
280.782	0.056
281.158	0.0554
281.534	0.0537
281.91	0.0534
282.287	0.0532
282.663	0.0549
283.039	0.0563
283.415	0.0538
283.791	0.0539
284.167	0.0521
284.543	0.0541
284.919	0.0515
285.295	0.052
285.671	0.0507
286.047	0.0511
286.423	0.0504
286.799	0.0514
287.174	0.0514
287.55	0.0505
287.926	0.0489
288.301	0.0497
288.677	0.0494
289.053	0.0497
289.428	0.0483
289.804	0.0482
290.179	0.0477
290.555	0.0481
290.93	0.0468
291.305	0.0448
291.681	0.0445
292.056	0.0471
292.431	0.0478
292.806	0.047
293.182	0.0442
293.557	0.0451
293.932	0.045
294.307	0.0453
294.682	0.0452
295.057	0.0449
295.432	0.0455
295.807	0.0449
296.182	0.0449
296.557	0.0446
296.932	0.0437
297.306	0.0437
297.681	0.0428
298.056	0.0429
298.43	0.0424
298.805	0.041
299.18	0.0411
299.554	0.0407
299.929	0.0422
300.303	0.0417
300.678	0.0413
301.052	0.0421
301.427	0.0414
301.801	0.0416
302.175	0.0395
302.55	0.0401
302.924	0.0391
303.298	0.0382
303.672	0.0382
304.046	0.039
304.421	0.0412
304.795	0.0402
305.169	0.0401
305.543	0.038
305.917	0.0382
306.291	0.0369
306.664	0.038
307.038	0.0364
307.412	0.0364
307.786	0.0352
308.16	0.0357
308.533	0.0368
308.907	0.0358
309.281	0.0371
309.654	0.0367
310.028	0.0369
310.401	0.0358
310.775	0.0343
311.148	0.0349
311.522	0.0341
311.895	0.0334
312.268	0.0329
312.642	0.033
313.015	0.0345
313.388	0.0335
313.761	0.0336
314.135	0.0329
314.508	0.0338
314.881	0.0333
315.254	0.0318
315.627	0.0304
316	0.03
316.373	0.03
316.746	0.0313
317.118	0.0312
317.491	0.0318
317.864	0.0332
318.237	0.0323
318.61	0.0303
318.982	0.0277
319.355	0.0275
319.727	0.0293
320.1	0.0295
320.473	0.0288
320.845	0.0301
321.218	0.03
321.59	0.0312
321.962	0.0285
322.335	0.0272
322.707	0.028
323.079	0.0292
323.452	0.0319
323.824	0.0318
324.196	0.0313
324.568	0.0295
324.94	0.0276
325.312	0.0301
325.684	0.0307
326.056	0.0316
326.428	0.0278
326.8	0.0258
327.172	0.0244
327.544	0.0228
327.915	0.0236
328.287	0.0242
328.659	0.0268
329.031	0.027
329.402	0.0245
329.774	0.0228
330.145	0.0214
330.517	0.0224
330.888	0.022
331.26	0.0219
331.631	0.022
332.003	0.023
332.374	0.0248
332.745	0.0253
333.117	0.0246
333.488	0.022
333.859	0.0233
334.23	0.024
334.601	0.0252
334.972	0.0245
335.343	0.0242
335.714	0.0236
336.085	0.0227
336.456	0.0219
336.827	0.0216
337.198	0.021
337.569	0.0201
337.94	0.02
338.31	0.0195
338.681	0.0182
339.052	0.02
339.422	0.0212
339.793	0.0229
340.164	0.0214
340.534	0.0207
340.905	0.0189
341.275	0.0179
341.645	0.0178
342.016	0.0193
342.386	0.0211
342.756	0.0208
343.127	0.0198
343.497	0.0177
343.867	0.0181
344.237	0.0197
344.607	0.0185
344.977	0.0188
345.347	0.0179
345.717	0.0194
346.087	0.0178
346.457	0.0181
346.827	0.0187
347.197	0.0196
347.567	0.0181
347.936	0.0164
348.306	0.0177
348.676	0.0204
349.046	0.0217
349.415	0.0179
349.785	0.0174
350.154	0.0159
350.524	0.0177
350.893	0.0164
351.263	0.0177
351.632	0.0177
352.001	0.0178
352.371	0.017
352.74	0.0165
353.109	0.0181
353.478	0.0186
353.847	0.0183
354.217	0.0167
354.586	0.0139
354.955	0.0141
355.324	0.0132
355.693	0.0165
356.062	0.0164
356.43	0.0178
356.799	0.0164
357.168	0.0147
357.537	0.0132
357.906	0.0123
358.274	0.013
358.643	0.0128
359.011	0.0126
359.38	0.013
359.749	0.0131
360.117	0.0136
360.486	0.0132
360.854	0.0123
361.222	0.0123
361.591	0.0128
361.959	0.0136
362.327	0.0141
362.695	0.0125
363.064	0.0138
363.432	0.0126
363.8	0.0127
364.168	0.0105
364.536	0.0111
364.904	0.0115
365.272	0.0122
365.64	0.0121
366.008	0.012
366.376	0.0114
366.743	0.0106
367.111	0.0106
367.479	0.0095
367.847	0.0108
368.214	0.0113
368.582	0.0126
368.949	0.0133
369.317	0.0123
369.684	0.0121
370.052	0.0113
370.419	0.0125
370.787	0.0138
371.154	0.0131
371.521	0.0141
371.889	0.0136
372.256	0.0144
372.623	0.0125
372.99	0.0123
373.357	0.0128
373.724	0.0132
374.091	0.0126
374.458	0.0095
374.825	0.009
375.192	0.0071
375.559	0.0082
375.926	0.0072
376.293	0.0092
376.659	0.0097
377.026	0.01
377.393	0.0103
377.759	0.0108
378.126	0.0112
378.492	0.0106
378.859	0.0105
379.225	0.0105
379.592	0.0112
379.958	0.0111
380.325	0.0086
380.691	0.0061
381.057	0.0062
381.423	0.0077
381.79	0.0105
382.156	0.0085
382.522	0.0107
382.888	0.0095
383.254	0.012
383.62	0.0104
383.986	0.0104
384.352	0.0092
384.718	0.0088
385.084	0.0081
385.449	0.0078
385.815	0.0082
386.181	0.0095
386.547	0.0099
386.912	0.0094
387.278	0.0096
387.643	0.0099
388.009	0.0093
388.374	0.0063
388.74	0.0062
389.105	0.0057
389.471	0.0065
389.836	0.0063
390.201	0.0087
390.566	0.0103
390.932	0.0095
391.297	0.0073
391.662	0.0064
392.027	0.0059
392.392	0.0061
392.757	0.0042
393.122	0.0046
393.487	0.0053
393.852	0.0069
394.217	0.0074
394.582	0.0085
394.946	0.0083
395.311	0.0076
395.676	0.0067
396.04	0.0067
396.405	0.0068
396.77	0.0067
397.134	0.0043
397.499	0.0053
397.863	0.0034
398.227	0.0079
398.592	0.0054
398.956	0.0066
399.32	0.003
399.685	0.0063
400.049	0.0085
400.413	0.0093
400.777	0.0077
401.141	0.0082
401.505	0.0076
401.869	0.0065
402.233	0.0051
402.597	0.005
402.961	0.0047
403.325	0.0058
403.689	0.008
404.053	0.0115
404.416	0.0102
404.78	0.0088
405.144	0.0076
405.507	0.0066
405.871	0.0069
406.234	0.0072
406.598	0.0074
406.961	0.0067
407.325	0.0059
407.688	0.0068
408.051	0.0076
408.415	0.0079
408.778	0.0073
409.141	0.0057
409.504	0.0059
409.867	0.0051
410.23	0.0052
410.593	0.0038
410.956	0.0045
411.319	0.0059
411.682	0.0027
412.045	0.0022
412.408	0.0003
412.771	0.0055
413.134	0.0049
413.496	0.0043
413.859	0.003
414.222	0.0031
414.584	0.0079
414.947	0.0081
415.309	0.0074
415.672	0.0065
416.034	0.0058
416.396	0.0067
416.759	0.0044
417.121	0.0066
417.483	0.0064
417.846	0.0048
418.208	0.0022
418.57	0.0021
418.932	0.0028
419.294	0.0025
419.656	0.0015
420.018	0.0028
420.38	0.0032
420.742	0.0039
421.104	0.0048
421.466	0.004
421.827	0.0021
422.189	-0.0007
422.551	0.0012
422.912	0.0051
423.274	0.0078
423.636	0.0067
423.997	0.0054
424.359	0.005
424.72	0.0074
425.081	0.0086
425.443	0.0092
425.804	0.0074
426.165	0.0066
426.527	0.0037
426.888	0.0016
427.249	0.0016
427.61	0.0037
427.971	0.0036
428.332	0.0026
428.693	0.0009
429.054	0.0023
429.415	0.0038
429.776	0.0014
430.137	0.0016
430.498	0.0015
430.858	0.005
431.219	0.0043
431.58	0.0058
431.94	0.007
432.301	0.0075
432.661	0.0035
433.022	0.0022
433.382	0.0023
433.743	0.0056
434.103	0.0046
434.463	0.0047
434.824	0.0023
435.184	0.0053
435.544	0.0043
435.904	0.0063
436.264	0.0038
436.624	0.0049
436.985	0.0037
437.345	0.0053
437.704	0.0055
438.064	0.0056
438.424	0.0025
438.784	0.0018
439.144	0.0017
439.504	0.0033
439.863	0.0022
440.223	0.002
440.583	0.002
440.942	0.0034
441.302	0.0039
441.661	0.0028
442.021	0.0024
442.38	0.001
442.739	0.0022
443.099	0.0005
443.458	0.0028
443.817	0.0047
444.176	0.0088
444.536	0.0061
444.895	0.0035
445.254	-0.0013
445.613	-0.0012
445.972	0.0003
446.331	0.0021
446.69	0.003
447.049	-0.0006
447.407	-0.0012
447.766	0.0001
448.125	0.0025
448.484	0.0031
448.842	0.0025
449.201	0.0029
449.559	0.0033
449.918	0.0045
450.276	0.0041
450.635	0.0061
450.993	0.0055
451.352	0.0056
451.71	0.0052
452.068	0.0026
452.426	0.0031
452.785	0.0029
453.143	0.0041
453.501	0.0069
453.859	0.004
454.217	0.0055
454.575	0.0009
454.933	0.0003
455.291	0.001
455.649	0.001
456.006	0.0031
456.364	0.002
456.722	0.0039
457.079	0.0026
457.437	0.0033
457.795	0.0041
458.152	0.0063
458.51	0.0048
458.867	0.003
459.225	0.0039
459.582	0.003
459.939	0.001
460.297	-0.0021
460.654	0.0005
461.011	0.0029
461.368	0.0048
461.725	0.0022
462.082	0.0027
462.44	-0.0007
462.797	-0.0001
463.153	0.0004
463.51	0.0031
463.867	0.0043
464.224	0.0046
464.581	0.0038
464.938	0.0054
465.294	0.0057
465.651	0.0091
466.008	0.0046
466.364	0.0069
466.721	0.0042
467.077	0.005
467.434	0.0004
467.79	0.0015
468.146	0.002
468.503	0.0031
468.859	0.0014
469.215	0.0012
469.571	-0.0007
469.927	0.0018
470.284	0.003
470.64	0.0055
470.996	0.0034
471.352	0.0036
471.707	0.0022
472.063	0.0043
472.419	0.0066
472.775	0.0071
473.131	0.0068
473.486	0.0013
473.842	0.0023
474.198	0.0018
474.553	0.0036
474.909	0.0032
475.264	0.0024
475.62	0.0032
475.975	0.0038
476.331	0.0024
476.686	0.0015
477.041	-0.0009
477.396	-0.0001
477.752	0.0021
478.107	0.0039
478.462	0.0026
478.817	0
479.172	0.0012
479.527	0.0027
479.882	0.005
480.237	0.002
480.591	0.002
480.946	0.0025
481.301	0.0046
481.656	0.0053
482.01	0.0039
482.365	0.0033
482.72	0.0047
483.074	0.0059
483.429	0.0046
483.783	0.0029
484.137	0.0018
484.492	0.0045
484.846	0.0039
485.2	0.0037
485.555	0.0023
485.909	-0.0004
486.263	0.0003
486.617	-0.0003
486.971	0.0014
487.325	0.0004
487.679	0.0005
488.033	0.0018
488.387	0.0027
488.741	0.0041
489.094	0.001
489.448	-0.0006
489.802	0.0007
490.156	0.002
490.509	0.0027
490.863	-0.0007
491.216	-0.0002
491.57	-0.0013
491.923	-0.0015
492.277	-0.0026
492.63	-0.0005
492.983	0.0009
493.337	0.0021
493.69	0.0006
494.043	-0.0019
494.396	-0.0008
494.749	0.0008
495.102	0.0023
495.455	0.0017
495.808	0.0024
496.161	0.0026
496.514	0.0028
496.867	-0.0007
497.22	-0.0002
497.572	-0.0013
497.925	-0.0005
498.278	0.0003
498.63	0.0007
498.983	0.0013
499.335	0.0003
499.688	0.0012
500.04	-0.0009
500.393	-0.0016
500.745	-0.0031
501.097	-0.001
501.449	-0.0006
501.802	-0.001
502.154	-0.0008
502.506	-0.0004
502.858	0.0007
503.21	0.0011
503.562	-0.0002
503.914	0.0001
504.266	0.0014
504.618	0.002
504.969	0.0035
505.321	0.0011
505.673	0.001
506.025	-0.0014
506.376	-0.0004
506.728	-0.0007
507.079	0.0001
507.431	-0.0016
507.782	-0.0001
508.134	0.0007
508.485	0.003
508.836	0.0035
509.188	0.002
509.539	0.0008
509.89	0.0016
510.241	0.0015
510.592	0.0003
510.943	-0.0018
511.294	0.0002
511.645	0.0011
511.996	0.0007
512.347	-0.0016
512.698	-0.0025
513.049	-0.0017
513.399	0.0008
513.75	0.0014
514.101	0.0013
514.451	-0
514.802	-0.0014
515.152	-0.0014
515.503	0.0003
515.853	0.0031
516.203	0.0012
516.554	-0.0003
516.904	0.0002
517.254	0.0004
517.604	0.0002
517.955	-0.0026
518.305	-0.0018
518.655	-0.0031
519.005	-0.0019
519.355	-0.0029
519.705	-0.0047
520.055	-0.0068
520.404	-0.0069
520.754	-0.0048
521.104	-0.0016
521.454	0.0004
521.803	0.0015
522.153	-0.0011
522.502	-0.003
522.852	-0.0017
523.201	-0.0018
523.551	0.0008
523.9	-0.0002
524.249	0.0014
524.599	-0.0011
524.948	-0.0017
525.297	-0.002
525.646	-0.0021
525.995	-0.0018
526.344	0
526.694	0.0029
527.042	0.0009
527.391	-0.0032
527.74	-0.0038
528.089	-0.0009
528.438	0.0018
528.787	0.0002
529.135	-0.0036
529.484	-0.0069
529.833	-0.0061
530.181	-0.0056
530.53	-0.003
530.878	-0.0036
531.227	-0.0013
531.575	-0.0019
531.923	0.0002
532.271	-0.0022
532.62	0.0004
532.968	-0.0015
533.316	-0
533.664	-0.0005
534.012	0.0003
534.36	0.0004
534.708	0.0001
535.056	-0.0037
535.404	-0.003
535.752	-0.0025
536.1	-0.0003
536.447	-0.0018
536.795	-0.0054
537.143	-0.0056
537.49	-0.0035
537.838	-0.0025
538.185	-0.0012
538.533	-0.0039
538.88	-0.0033
539.228	-0.0042
539.575	-0.0027
539.922	-0.0017
540.269	0.0016
540.617	0.0032
540.964	-0.0006
541.311	-0.0047
541.658	-0.0046
542.005	-0.0017
542.352	0.0017
542.699	-0.0002
543.045	-0.0018
543.392	-0.0025
543.739	-0.0022
544.086	-0.0022
544.432	-0.0042
544.779	-0.0051
545.126	-0.0045
545.472	-0.0039
545.819	-0.0022
546.165	-0.0028
546.512	-0.0038
546.858	-0.0049
547.204	-0.0031
547.55	-0.0028
547.897	-0.002
548.243	-0.0042
548.589	-0.0063
548.935	-0.0075
549.281	-0.0066
549.627	-0.0045
549.973	-0.002
550.319	-0.0026
550.665	-0.0029
551.01	-0.0049
551.356	-0.0018
551.702	-0.0011
552.048	-0.002
552.393	-0.0048
552.739	-0.005
553.084	-0.0051
553.43	-0.0047
553.775	-0.0055
554.12	-0.0037
554.466	-0.0038
554.811	-0.0046
555.156	-0.0076
555.502	-0.008
555.847	-0.0064
556.192	-0.0038
556.537	-0.0035
556.882	-0.0053
557.227	-0.0076
557.572	-0.0084
557.917	-0.0031
558.261	-0.0017
558.606	0.0024
558.951	-0.0007
559.295	-0.0007
559.64	-0.0057
559.985	-0.0047
560.329	-0.0025
560.674	0.0009
561.018	-0.0011
561.363	-0.0027
561.707	-0.0032
562.051	-0.0045
562.395	-0.004
562.74	-0.0027
563.084	0.0013
563.428	0.0033
563.772	0.0017
564.116	-0.0002
564.46	-0.0027
564.804	-0.0034
565.148	-0.0058
565.492	-0.0065
565.835	-0.0049
566.179	-0.0006
566.523	-0.0017
566.866	-0.0035
567.21	-0.0047
567.554	-0.0027
567.897	0.0004
568.24	-0
568.584	0.0001
568.927	-0.0006
569.271	-0.002
569.614	-0.004
569.957	-0.0052
570.3	-0.0055
570.643	-0.0049
570.986	-0.0078
571.329	-0.0041
571.672	-0
572.015	-0.0027
572.358	-0.0045
572.701	-0.0075
573.044	-0.006
573.387	-0.0063
573.729	-0.0047
574.072	-0.0015
574.414	-0.004
574.757	-0.0042
575.099	-0.0078
575.442	-0.007
575.784	-0.0054
576.127	-0.0021
576.469	-0.0027
576.811	-0.0061
577.153	-0.0057
577.496	-0.0061
577.838	-0.003
578.18	-0.005
578.522	-0.0056
578.864	-0.0089
579.206	-0.0055
579.548	-0.0047
579.889	-0.0062
580.231	-0.0049
580.573	-0.0018
580.915	-0.0009
581.256	-0.0058
581.598	-0.0077
581.939	-0.0102
582.281	-0.0047
582.622	-0.0041
582.964	-0.0003
583.305	-0.0036
583.646	-0.0028
583.988	-0.0006
584.329	0.0008
584.67	-0.0037
585.011	-0.0079
585.352	-0.0129
585.693	-0.0101
586.034	-0.0095
586.375	-0.0074
586.716	-0.0048
587.057	-0.002
587.398	-0.003
587.738	-0.0013
588.079	-0.0036
588.42	-0.0011
588.76	-0.0049
589.101	-0.0052
589.441	-0.0085
589.782	-0.0074
590.122	-0.006
590.463	-0.0036
590.803	-0.0059
591.143	-0.0043
591.483	-0.0066
591.823	-0.0057
592.164	-0.0083
592.504	-0.0066
592.844	-0.0077
593.184	-0.0065
593.523	-0.0054
593.863	-0.0031
594.203	-0.0044
594.543	-0.0054
594.883	-0.0075
595.222	-0.0073
595.562	-0.0032
595.901	-0.0018
596.241	-0.0027
596.58	-0.0058
596.92	-0.0062
597.259	-0.0049
597.599	-0.0009
597.938	-0.0019
598.277	0.0004
598.616	-0.0044
598.955	-0.0022
599.295	-0.0046
599.634	-0.005
599.973	-0.0065
600.312	-0.0077
600.65	-0.0062
600.989	-0.006
601.328	-0.0029
601.667	0.0019
602.005	-0.0021
602.344	-0.0042
602.683	-0.0075
603.021	-0.0057
603.36	-0.0082
603.698	-0.0096
604.037	-0.0098
604.375	-0.0058
604.713	-0.0065
605.052	-0.0066
605.39	-0.0088
605.728	-0.01
606.066	-0.0077
606.404	-0.01
606.742	-0.0077
607.08	-0.0075
607.418	-0.0079
607.756	-0.0076
608.094	-0.0082
608.431	-0.0048
608.769	-0.0033
609.107	-0.0067
609.444	-0.0055
609.782	-0.0079
610.12	-0.0005
610.457	-0.0024
610.794	-0.0055
611.132	-0.0106
611.469	-0.0118
611.806	-0.0081
612.144	-0.0077
612.481	-0.0051
612.818	-0.0026
613.155	-0.0035
613.492	-0.0024
613.829	-0.0032
614.166	-0.0023
614.503	-0.0028
614.84	-0.0053
615.176	-0.0067
615.513	-0.008
615.85	-0.0102
616.187	-0.0046
616.523	-0.0068
616.86	-0.0069
617.196	-0.0104
617.533	-0.0059
617.869	-0.0043
618.205	-0.0042
618.542	-0.0059
618.878	-0.008
619.214	-0.0081
619.55	-0.0078
619.886	-0.005
620.222	-0.0086
620.558	-0.0089
620.894	-0.0077
621.23	-0.0052
621.566	-0.0102
621.902	-0.0096
622.238	-0.0103
622.573	-0.0006
622.909	-0.0042
623.244	-0.0052
623.58	-0.012
623.916	-0.0133
624.251	-0.0088
624.586	-0.0049
624.922	-0.0067
625.257	-0.0102
625.592	-0.0087
625.927	-0.0016
626.263	-0.0008
626.598	-0.0046
626.933	-0.0033
627.268	-0.0005
627.603	-0.0024
627.938	-0.0087
628.272	-0.0097
628.607	-0.0105
628.942	-0.009
629.277	-0.009
629.611	-0.0066
629.946	-0.0072
630.281	-0.0085
630.615	-0.0066
630.949	-0.003
631.284	-0.0035
631.618	-0.0013
631.953	-0.0007
632.287	0.0007
632.621	-0.0031
632.955	-0.006
633.289	-0.0021
633.623	-0.0019
633.957	-0.0011
634.291	-0.0097
634.625	-0.0063
634.959	-0.0102
635.293	-0.0072
635.627	-0.015
635.96	-0.0146
636.294	-0.0161
636.627	-0.0134
636.961	-0.0118
637.294	-0.0133
637.628	-0.0132
637.961	-0.0143
638.295	-0.0102
638.628	-0.0097
638.961	-0.0085
639.294	-0.0049
639.628	-0.0034
639.961	-0.0011
640.294	-0.0047
640.627	-0.0058
640.96	-0.01
641.293	-0.0081
641.625	-0.0109
641.958	-0.012
642.291	-0.0095
642.624	-0.0064
642.956	-0.0026
643.289	-0.006
643.621	-0.006
643.954	-0.012
644.286	-0.0164
644.619	-0.0144
644.951	-0.008
645.283	-0.0042
645.616	-0.0061
645.948	-0.0064
646.28	-0.0069
646.612	-0.0067
646.944	-0.0065
647.276	-0.0037
647.608	-0.0018
647.94	0.0006
648.272	-0.0021
648.603	-0.0042
648.935	-0.0064
649.267	-0.0059
649.598	-0.0046
649.93	-0.0067
650.261	-0.0056
650.593	-0.0025
650.924	-0.0023
651.256	-0.0016
651.587	-0.006
651.918	-0.0032
652.25	-0.006
652.581	-0.0099
652.912	-0.0139
653.243	-0.0142
653.574	-0.0115
653.905	-0.0124
654.236	-0.0111
654.567	-0.01
654.897	-0.0106
655.228	-0.0101
655.559	-0.0083
655.89	-0.005
656.22	-0.0067
656.551	-0.0101
656.881	-0.011
657.212	-0.013
657.542	-0.0101
657.872	-0.0111
658.203	-0.0027
658.533	0.0086
658.863	0.0065
659.193	-0.0051
659.523	-0.0107
659.853	-0.0221
660.183	-0.0133
660.513	-0.0092
660.843	-0.0055
661.173	-0.0053
661.503	-0.0068
661.833	-0.0066
662.162	-0.0092
662.492	-0.0058
662.822	-0.0093
663.151	-0.008
663.481	-0.0114
663.81	-0.0127
664.139	-0.0105
664.469	-0.0132
664.798	-0.006
665.127	-0.0088
665.456	-0.0055
665.785	-0.0054
666.114	-0.0119
666.443	-0.0098
666.772	-0.0113
667.101	-0.0067
667.43	-0.0096
667.759	-0.0087
668.088	-0.0069
668.416	-0.009
668.745	-0.0107
669.074	-0.0134
669.402	-0.0134
669.731	-0.0121
670.059	-0.0102
670.388	-0.0013
670.716	-0.0032
671.044	-0.0005
671.372	-0.0053
671.701	-0.0067
672.029	-0.0033
672.357	0.0005
672.685	0.0043
673.013	-0.0014
673.341	-0.0037
673.669	-0.0067
673.996	-0.0074
674.324	-0.0085
674.652	-0.0071
674.98	-0.0064
675.307	-0.0102
675.635	-0.0156
675.962	-0.0167
676.29	-0.0131
676.617	-0.007
676.945	-0.0068
677.272	-0.0053
677.599	-0.0073
677.926	-0.0038
678.253	-0.0055
678.581	-0.0091
678.908	-0.0129
679.235	-0.0117
679.561	-0.0057
679.888	-0.004
680.215	-0.0046
680.542	-0.0064
680.869	-0.01
681.195	-0.01
681.522	-0.0085
681.849	-0.0046
682.175	-0.0061
682.502	-0.0071
682.828	-0.0068
683.154	-0.0085
683.481	-0.0086
683.807	-0.0098
684.133	-0.0086
684.459	-0.0072
684.785	-0.0072
685.111	-0.0092
685.437	-0.0138
685.763	-0.0205
686.089	-0.019
686.415	-0.0193
686.741	-0.0106
687.067	-0.0081
687.392	-0.0065
687.718	-0.0108
688.043	-0.0099
688.369	-0.0122
688.694	-0.0087
689.02	-0.0157
689.345	-0.0083
689.67	-0.0127
689.996	-0.0073
690.321	-0.0109
690.646	-0.0095
690.971	-0.0125
691.296	-0.015
691.621	-0.0149
691.946	-0.0076
692.271	-0.0065
692.596	-0.0033
692.921	-0.006
693.245	-0.0014
693.57	-0.0057
693.895	-0.0028
694.219	-0.0074
694.544	-0.0059
694.868	-0.0073
695.193	-0.0065
695.517	-0.007
695.841	-0.0094
696.166	-0.0116
696.49	-0.012
696.814	-0.0121
697.138	-0.0105
697.462	-0.0101
697.786	-0.0076
698.11	-0.0075
698.434	-0.0052
698.758	-0.0064
699.081	-0.0095
699.405	-0.0134
699.729	-0.0123
700.052	-0.0159
700.376	-0.0135
700.7	-0.015
701.023	-0.0098
701.346	-0.0108
701.67	-0.0112
701.993	-0.0142
702.316	-0.0096
702.639	-0.0087
702.963	-0.0103
703.286	-0.0121
703.609	-0.0125
703.932	-0.0097
704.255	-0.0065
704.578	-0.0065
704.9	0.0018
705.223	-0.0058
705.546	-0.0059
705.868	-0.0125
706.191	-0.0122
706.514	-0.0124
706.836	-0.0121
707.159	-0.0069
707.481	-0.0049
707.803	-0.0071
708.126	-0.0082
708.448	-0.0166
708.77	-0.0107
709.092	-0.0085
709.414	-0.0024
709.736	-0.0048
710.058	-0.0106
710.38	-0.0131
710.702	-0.0134
711.024	-0.0097
711.345	-0.0054
711.667	-0.0069
711.989	-0.0086
712.31	-0.0083
712.632	-0.0103
712.953	-0.0076
713.275	-0.009
713.596	-0.0022
713.917	-0.0038
714.239	-0.0091
714.56	-0.0129
714.881	-0.0138
715.202	-0.0106
715.523	-0.0099
715.844	-0.0048
716.165	-0.0084
716.486	-0.009
716.807	-0.0156
717.128	-0.0081
717.448	-0.0093
717.769	-0.0071
718.09	-0.0084
718.41	-0.0071
718.731	-0.0025
719.051	-0.0063
719.372	-0.0059
719.692	-0.0175
720.012	-0.0139
720.332	-0.016
720.653	-0.0097
720.973	-0.0076
721.293	-0.0102
721.613	-0.0103
721.933	-0.0105
722.253	-0.0059
722.573	-0.0073
722.892	-0.012
723.212	-0.0202
723.532	-0.024
723.851	-0.0221
724.171	-0.0143
724.491	-0.0148
724.81	-0.0177
725.129	-0.0116
725.449	-0.0069
725.768	-0.0024
726.087	-0.0086
726.407	-0.0045
726.726	-0.0061
727.045	-0.0063
727.364	-0.0097
727.683	-0.0039
728.002	-0.0043
728.321	-0.0043
728.64	-0.0049
728.958	-0.0039
729.277	-0.0072
729.596	-0.0114
729.914	-0.0132
730.233	-0.0127
730.551	-0.0141
730.87	-0.0119
731.188	-0.0082
731.507	-0.007
731.825	-0.008
732.143	-0.0122
732.461	-0.0103
732.779	-0.0085
733.097	-0.0091
733.415	-0.0081
733.733	-0.0089
734.051	-0.0089
734.369	-0.0136
734.687	-0.0141
735.005	-0.013
735.322	-0.0094
735.64	-0.0106
735.957	-0.0071
736.275	-0.0074
736.592	-0.0025
736.91	-0.0031
737.227	-0.0052
737.544	-0.0122
737.862	-0.0107
738.179	-0.0063
738.496	-0.0002
738.813	-0.0078
739.13	-0.0134
739.447	-0.013
739.764	-0.0103
740.081	-0.0109
740.398	-0.0162
740.714	-0.0134
741.031	-0.0099
741.348	-0.0077
741.664	-0.0086
741.981	-0.0074
742.297	-0.0045
742.614	-0.0075
742.93	-0.0087
743.246	-0.0129
743.563	-0.0125
743.879	-0.0181
744.195	-0.0182
744.511	-0.0169
744.827	-0.01
745.143	-0.0106
745.459	-0.0098
745.775	-0.0135
746.091	-0.0142
746.406	-0.0155
746.722	-0.0143
747.038	-0.0143
747.353	-0.0134
747.669	-0.014
747.984	-0.0124
748.3	-0.0107
748.615	-0.0124
748.93	-0.01
749.246	-0.0116
749.561	-0.0069
749.876	-0.0116
750.191	-0.0112
750.506	-0.0178
750.821	-0.0167
751.136	-0.0188
751.451	-0.0091
751.766	-0.0058
752.08	-0.0047
752.395	-0.0115
752.71	-0.0138
753.024	-0.0127
753.339	-0.0061
753.653	-0.0106
753.968	-0.0142
754.282	-0.018
754.596	-0.009
754.911	-0.0095
755.225	-0.0047
755.539	-0.0091
755.853	-0.0048
756.167	-0.0069
756.481	-0.0095
756.795	-0.0108
757.109	-0.0073
757.423	-0.0042
757.736	-0.0052
758.05	-0.0104
758.364	-0.01
758.677	-0.0118
758.991	-0.0097
759.304	-0.009
759.618	-0.0072
759.931	-0.0112
760.244	-0.0103
760.558	-0.0112
760.871	-0.0142
761.184	-0.0157
761.497	-0.0131
761.81	-0.0074
762.123	-0.0123
762.436	-0.0146
762.749	-0.0172
763.062	-0.0155
763.374	-0.0167
763.687	-0.0124
764	-0.01
764.312	-0.0039
764.625	-0.0055
764.937	-0.006
765.25	-0.0135
765.562	-0.0147
765.874	-0.0162
766.186	-0.012
766.499	-0.0107
766.811	-0.0098
767.123	-0.0116
767.435	-0.0139
767.747	-0.0116
768.059	-0.011
768.37	-0.0114
768.682	-0.0134
768.994	-0.0197
769.306	-0.0215
769.617	-0.0223
769.929	-0.0143
770.24	-0.006
770.552	-0.0089
770.863	-0.017
771.174	-0.0156
771.486	-0.0131
771.797	-0.0098
772.108	-0.0181
772.419	-0.0133
772.73	-0.0128
773.041	-0.0072
773.352	-0.0084
773.663	-0.0059
773.974	-0.0049
774.285	-0.0074
774.595	-0.0091
774.906	-0.01
775.217	-0.011
775.527	-0.0113
775.838	-0.0134
776.148	-0.012
776.458	-0.0096
776.769	-0.005
777.079	-0.0062
777.389	-0.0137
777.699	-0.0181
778.009	-0.0177
778.319	-0.013
778.629	-0.0069
778.939	-0.0058
779.249	-0.0028
779.559	-0.0062
779.869	-0.0086
780.178	-0.0118
780.488	-0.0184
780.798	-0.0158
781.107	-0.0145
781.417	-0.0101
781.726	-0.0157
782.035	-0.0145
782.345	-0.0117
782.654	-0.0142
782.963	-0.015
783.272	-0.0178
783.581	-0.0103
783.89	-0.0088
784.199	-0.0073
784.508	-0.015
784.817	-0.0217
785.126	-0.0283
785.434	-0.021
785.743	-0.0158
786.052	-0.0106
786.36	-0.0174
786.669	-0.0188
786.977	-0.0216
787.285	-0.0129
787.594	-0.0115
787.902	-0.0104
788.21	-0.0142
788.518	-0.0121
788.826	-0.0092
789.135	-0.0097
789.442	-0.0118
789.75	-0.0083
790.058	-0.0035
790.366	-0.0038
790.674	-0.01
790.981	-0.0114
791.289	-0.0122
791.597	-0.012
791.904	-0.0178
792.212	-0.0179
792.519	-0.0193
792.826	-0.0162
793.134	-0.0164
793.441	-0.0117
793.748	-0.0033
794.055	0.0032
794.362	-0.0042
794.669	-0.014
794.976	-0.0184
795.283	-0.0139
795.59	-0.0081
795.897	-0.0071
796.203	-0.0125
796.51	-0.0137
796.817	-0.0138
797.123	-0.011
797.43	-0.0096
797.736	-0.0124
798.042	-0.0141
798.349	-0.0129
798.655	-0.0096
798.961	-0.0108
799.267	-0.0122
799.573	-0.0125
799.879	-0.0126
800.185	-0.0123
800.491	-0.01
800.797	-0.0064
801.103	-0.0082
801.408	-0.012
801.714	-0.0107
802.02	-0.0085
802.325	-0.0057
802.631	-0.009
802.936	-0.0136
803.242	-0.0197
803.547	-0.0211
803.852	-0.0232
804.157	-0.0221
804.462	-0.021
804.768	-0.0167
805.073	-0.0095
805.378	-0.0083
805.682	-0.0133
805.987	-0.0179
806.292	-0.0139
806.597	-0.0072
806.902	-0.0073
807.206	-0.0097
807.511	-0.0158
807.815	-0.0191
808.12	-0.02
808.424	-0.0224
808.728	-0.0175
809.033	-0.0189
809.337	-0.02
809.641	-0.018
809.945	-0.0144
810.249	-0.0074
810.553	-0.0096
810.857	-0.0158
811.161	-0.0152
811.465	-0.0158
811.768	-0.0118
812.072	-0.0124
812.376	-0.01
812.679	-0.0143
812.983	-0.013
813.286	-0.0173
813.59	-0.0145
813.893	-0.0135
814.196	-0.0116
814.499	-0.0099
814.803	-0.0138
815.106	-0.0146
815.409	-0.0129
815.712	-0.0064
816.015	-0.0084
816.318	-0.0094
816.62	-0.019
816.923	-0.0133
817.226	-0.0181
817.528	-0.013
817.831	-0.015
818.133	-0.0136
818.436	-0.0185
818.738	-0.025
819.041	-0.0224
819.343	-0.0149
819.645	-0.014
819.947	-0.0062
820.249	-0.0095
820.551	-0.0101
820.853	-0.0094
821.155	-0.0139
821.457	-0.011
821.759	-0.0176
822.061	-0.0158
822.362	-0.0141
822.664	-0.0156
822.966	-0.0074
823.267	-0.0104
823.569	-0.0113
823.87	-0.0234
824.171	-0.0224
824.473	-0.0229
824.774	-0.0142
825.075	-0.0139
825.376	-0.0107
825.677	-0.0063
825.978	-0.0066
826.279	-0.0187
826.58	-0.021
826.881	-0.0228
827.181	-0.0106
827.482	-0.0116
827.783	-0.0051
828.083	-0.0154
828.384	-0.0257
828.684	-0.0358
828.985	-0.025
829.285	-0.0211
829.585	-0.0192
829.885	-0.0247
830.185	-0.0213
830.486	-0.0156
830.786	-0.01
831.086	-0.0023
831.385	-0.0059
831.685	-0.0102
831.985	-0.0229
832.285	-0.0228
832.585	-0.0208
832.884	-0.0199
833.184	-0.0249
833.483	-0.0308
833.783	-0.0304
834.082	-0.0298
834.381	-0.0254
834.681	-0.0246
834.98	-0.0168
835.279	-0.0137
835.578	-0.0146
835.877	-0.0128
836.176	-0.0118
836.475	-0.0058
836.774	-0.0163
837.072	-0.0182
837.371	-0.0126
837.67	-0.0041
837.968	-0.0067
838.267	-0.0177
838.565	-0.0258
838.864	-0.0299
839.162	-0.0365
839.46	-0.0383
839.759	-0.0268
840.057	-0.0212
840.355	-0.0166
840.653	-0.0226
840.951	-0.0245
841.249	-0.0152
841.547	-0.0044
841.845	0.0021
842.142	0.0065
842.44	-0.0119
842.738	-0.0186
843.035	-0.0323
843.333	-0.0301
843.63	-0.0224
843.928	-0.0178
844.225	-0.0033
844.522	-0.0058
844.82	-0.0058
845.117	-0.0187
845.414	-0.0145
845.711	-0.0003
846.008	0.0048
846.305	-0.0078
846.602	-0.0324
846.898	-0.0332
847.195	-0.0402
847.492	-0.0368
847.788	-0.044
848.085	-0.0321
848.382	-0.0106
848.678	-0.0148
848.974	-0.0108
849.271	-0.0193
849.567	-0.0069
849.863	-0.0008
850.159	-0.0089
850.455	-0.0076
850.751	-0.0145
851.047	-0.0118
851.343	-0.0262
851.639	-0.0211
851.935	-0.0301
852.23	-0.0236
852.526	-0.0352
852.822	-0.0268
853.117	-0.0223
853.413	-0.0219
853.708	-0.0321
854.003	-0.0299
854.299	-0.0244
854.594	-0.0226
854.889	-0.0266
855.184	-0.0281
855.479	-0.0149
855.774	-0.0082
856.069	-0.0234
856.364	-0.03
856.659	-0.0331
856.954	0.0017
857.248	-0.0011
857.543	0.0101
857.837	-0.0136
858.132	-0.0049
858.426	-0.027
858.721	-0.028
859.015	-0.0263
859.309	-0.0229
859.604	-0.0227
859.898	-0.017
860.192	-0.0037
860.486	-0.0006
860.78	-0.0086
861.074	-0.0128
861.367	-0.0119
861.661	-0.0111
861.955	-0.0039
862.248	-0.0006
862.542	-0.0126
862.836	-0.0211
863.129	-0.037
863.422	-0.0357
863.716	-0.0306
864.009	-0.0142
864.302	-0.0096
864.595	-0.0235
864.889	-0.0228
865.182	-0.0227
865.475	-0.0216
865.767	-0.0209
866.06	-0.0344
866.353	-0.0385
866.646	-0.0328
866.938	-0.0285
867.231	-0.0302
867.524	-0.0355
867.816	-0.0052
868.109	0.0172
868.401	0.021
868.693	0.0035
868.985	-0.0169
869.278	-0.0156
869.57	-0.0208
869.862	-0.0153
870.154	-0.0171
870.446	-0.0304
870.738	-0.0388
871.029	-0.0646
871.321	-0.0501
871.613	-0.0297
871.904	-0.0192
872.196	-0.0196
872.487	-0.0223
872.779	-0.0213
873.07	-0.0135
873.362	-0.0176
873.653	-0.0027
873.944	-0.0219
874.235	-0.0428
874.526	-0.0421
874.817	-0.0491
875.108	-0.0071
875.399	-0.0179
875.69	0.0091
875.981	-0.0251
876.271	-0.0272
876.562	-0.0299
876.853	-0.0364
877.143	-0.0426
877.434	-0.0571
877.724	-0.0727
878.014	-0.0378
878.305	-0.0289
878.595	0.0263
878.885	-0.0254
879.175	-0.027
879.465	-0.0534
879.755	-0.0259
880.045	-0.0362
880.335	-0.048
880.624	-0.0596
880.914	-0.0596
