Data from 26SS01LU_071417_1a_Absorbance_22-13-18-276.txt Node
Date: Tue Jul 18 22:13:18 MDT 2017
User: Tank Lab
Spectrometer: FLMS01220
Trigger mode: 0
Integration Time (sec): 1.000000E-1
Scans to average: 10
Electric dark correction enabled: true
Nonlinearity correction enabled: false
Boxcar width: 1
XAxis mode: Wavelengths
Number of Pixels in Spectrum: 2048
>>>>>Begin Spectral Data<<<<<
179.47	0.286
179.856	0.286
180.241	0.2493
180.626	0.2823
181.011	0.1239
181.396	0.2791
181.781	0.4168
182.166	-0
182.551	0.4065
182.936	0.6113
183.321	0.7542
183.706	0.0954
184.091	0.0606
184.476	0.2413
184.86	0.3106
185.245	-0.0787
185.63	0.2096
186.015	-0
186.399	-0
186.784	0.3487
187.169	0.0588
187.553	0.1871
187.938	0.1903
188.322	0.1267
188.707	0.0686
189.091	0.0492
189.475	0.0558
189.86	0.075
190.244	0.1187
190.629	0.1263
191.013	0.1461
191.397	0.1743
191.781	0.2284
192.165	0.2834
192.55	0.3204
192.934	0.3723
193.318	0.4047
193.702	0.4392
194.086	0.4456
194.47	0.4476
194.854	0.4466
195.238	0.4331
195.622	0.4345
196.006	0.4113
196.389	0.3964
196.773	0.3687
197.157	0.3545
197.541	0.3411
197.924	0.3248
198.308	0.3013
198.692	0.2802
199.075	0.2674
199.459	0.2531
199.843	0.2412
200.226	0.2256
200.61	0.2117
200.993	0.2005
201.376	0.1897
201.76	0.1795
202.143	0.1732
202.527	0.1661
202.91	0.163
203.293	0.1554
203.676	0.1505
204.059	0.1474
204.443	0.1453
204.826	0.1423
205.209	0.1337
205.592	0.1267
205.975	0.1196
206.358	0.1176
206.741	0.1152
207.124	0.1137
207.507	0.115
207.89	0.1155
208.273	0.1167
208.655	0.11
209.038	0.1082
209.421	0.1031
209.804	0.1049
210.186	0.0994
210.569	0.1013
210.951	0.0986
211.334	0.0973
211.717	0.0925
212.099	0.0918
212.482	0.0914
212.864	0.0914
213.246	0.0903
213.629	0.093
214.011	0.0942
214.393	0.0941
214.776	0.0916
215.158	0.0902
215.54	0.0868
215.922	0.0862
216.305	0.0854
216.687	0.0872
217.069	0.0854
217.451	0.0829
217.833	0.0816
218.215	0.0814
218.597	0.0797
218.979	0.0781
219.361	0.0775
219.742	0.0755
220.124	0.0758
220.506	0.0739
220.888	0.0753
221.27	0.0729
221.651	0.0684
222.033	0.0664
222.415	0.0641
222.796	0.0644
223.178	0.0624
223.559	0.0628
223.941	0.0618
224.322	0.0613
224.704	0.0601
225.085	0.0601
225.466	0.0585
225.848	0.0563
226.229	0.0556
226.61	0.0557
226.992	0.0555
227.373	0.0541
227.754	0.0526
228.135	0.0519
228.516	0.0527
228.897	0.0521
229.278	0.0516
229.659	0.0488
230.04	0.0483
230.421	0.0458
230.802	0.0457
231.183	0.0453
231.564	0.046
231.944	0.0447
232.325	0.0432
232.706	0.0421
233.087	0.0404
233.467	0.0402
233.848	0.0391
234.229	0.0386
234.609	0.038
234.99	0.0379
235.37	0.0389
235.751	0.0384
236.131	0.0377
236.511	0.036
236.892	0.0361
237.272	0.0358
237.652	0.0355
238.033	0.0332
238.413	0.0336
238.793	0.0326
239.173	0.0338
239.553	0.0333
239.933	0.035
240.313	0.0346
240.694	0.0329
241.074	0.0307
241.453	0.0307
241.833	0.0317
242.213	0.0327
242.593	0.0327
242.973	0.0322
243.353	0.0311
243.732	0.03
244.112	0.0293
244.492	0.03
244.872	0.0318
245.251	0.0327
245.631	0.0334
246.01	0.0309
246.39	0.0297
246.769	0.0292
247.149	0.0303
247.528	0.0298
247.908	0.028
248.287	0.0289
248.666	0.0289
249.045	0.029
249.425	0.0274
249.804	0.0277
250.183	0.0283
250.562	0.0273
250.941	0.0275
251.32	0.0279
251.699	0.0302
252.078	0.0291
252.457	0.0282
252.836	0.0262
253.215	0.0266
253.594	0.0267
253.973	0.0264
254.352	0.0255
254.731	0.0266
255.109	0.0258
255.488	0.026
255.867	0.0246
256.245	0.0262
256.624	0.0259
257.002	0.0252
257.381	0.0229
257.759	0.0232
258.138	0.0234
258.516	0.0255
258.895	0.026
259.273	0.0268
259.651	0.026
260.03	0.0252
260.408	0.0241
260.786	0.0236
261.164	0.0243
261.542	0.0237
261.921	0.0242
262.299	0.0223
262.677	0.0223
263.055	0.0216
263.433	0.0224
263.811	0.024
264.188	0.0224
264.566	0.0227
264.944	0.0219
265.322	0.0238
265.7	0.0246
266.077	0.025
266.455	0.0229
266.833	0.0227
267.21	0.0223
267.588	0.024
267.966	0.0219
268.343	0.0209
268.721	0.0203
269.098	0.0208
269.475	0.0216
269.853	0.0236
270.23	0.024
270.607	0.0239
270.985	0.0219
271.362	0.0204
271.739	0.0195
272.116	0.0184
272.494	0.0187
272.871	0.0191
273.248	0.0197
273.625	0.0202
274.002	0.0192
274.379	0.0187
274.756	0.0187
275.132	0.0182
275.509	0.0185
275.886	0.0175
276.263	0.0188
276.64	0.018
277.016	0.0184
277.393	0.0179
277.77	0.0177
278.146	0.0182
278.523	0.0172
278.899	0.0169
279.276	0.0168
279.652	0.0165
280.029	0.016
280.405	0.0156
280.782	0.0153
281.158	0.0169
281.534	0.0173
281.91	0.019
282.287	0.0175
282.663	0.0181
283.039	0.0184
283.415	0.0184
283.791	0.0172
284.167	0.0158
284.543	0.0167
284.919	0.0167
285.295	0.0172
285.671	0.0164
286.047	0.0166
286.423	0.0164
286.799	0.0174
287.174	0.0185
287.55	0.0176
287.926	0.017
288.301	0.0151
288.677	0.0152
289.053	0.0142
289.428	0.015
289.804	0.0146
290.179	0.0151
290.555	0.0143
290.93	0.0138
291.305	0.0135
291.681	0.0133
292.056	0.0148
292.431	0.0154
292.806	0.0169
293.182	0.017
293.557	0.0168
293.932	0.0152
294.307	0.0126
294.682	0.0121
295.057	0.0111
295.432	0.0134
295.807	0.0136
296.182	0.0147
296.557	0.0136
296.932	0.0132
297.306	0.013
297.681	0.0137
298.056	0.0154
298.43	0.0155
298.805	0.015
299.18	0.0125
299.554	0.0117
299.929	0.0117
300.303	0.013
300.678	0.014
301.052	0.0142
301.427	0.0138
301.801	0.013
302.175	0.0125
302.55	0.0124
302.924	0.0124
303.298	0.0121
303.672	0.0123
304.046	0.0129
304.421	0.0124
304.795	0.0118
305.169	0.0099
305.543	0.0097
305.917	0.0083
306.291	0.0109
306.664	0.012
307.038	0.0136
307.412	0.0111
307.786	0.0111
308.16	0.012
308.533	0.013
308.907	0.0138
309.281	0.0139
309.654	0.0143
310.028	0.013
310.401	0.0111
310.775	0.011
311.148	0.0111
311.522	0.013
311.895	0.0119
312.268	0.0114
312.642	0.011
313.015	0.0128
313.388	0.0129
313.761	0.0117
314.135	0.0095
314.508	0.0093
314.881	0.0097
315.254	0.0107
315.627	0.0109
316	0.0107
316.373	0.0127
316.746	0.0119
317.118	0.0127
317.491	0.0109
317.864	0.0106
318.237	0.0095
318.61	0.0091
318.982	0.0094
319.355	0.0083
319.727	0.0075
320.1	0.0084
320.473	0.0101
320.845	0.0102
321.218	0.0097
321.59	0.0089
321.962	0.0086
322.335	0.0087
322.707	0.0074
323.079	0.0088
323.452	0.0081
323.824	0.0107
324.196	0.0095
324.568	0.0123
324.94	0.0123
325.312	0.0146
325.684	0.0134
326.056	0.012
326.428	0.0105
326.8	0.0095
327.172	0.01
327.544	0.009
327.915	0.0092
328.287	0.0072
328.659	0.008
329.031	0.0077
329.402	0.0087
329.774	0.0078
330.145	0.0075
330.517	0.0079
330.888	0.007
331.26	0.0063
331.631	0.0049
332.003	0.0061
332.374	0.0068
332.745	0.0064
333.117	0.0059
333.488	0.0075
333.859	0.009
334.23	0.0083
334.601	0.0068
334.972	0.0064
335.343	0.0079
335.714	0.0071
336.085	0.0067
336.456	0.0064
336.827	0.006
337.198	0.0061
337.569	0.0059
337.94	0.0062
338.31	0.005
338.681	0.0043
339.052	0.0038
339.422	0.0047
339.793	0.0068
340.164	0.0081
340.534	0.0075
340.905	0.0067
341.275	0.0074
341.645	0.0099
342.016	0.009
342.386	0.0083
342.756	0.0064
343.127	0.0059
343.497	0.0055
343.867	0.005
344.237	0.0042
344.607	0.0025
344.977	0.0033
345.347	0.0038
345.717	0.0034
346.087	0.0023
346.457	0.0029
346.827	0.0035
347.197	0.0039
347.567	0.0025
347.936	0.0043
348.306	0.0051
348.676	0.0069
349.046	0.0054
349.415	0.005
349.785	0.0036
350.154	0.0039
350.524	0.0042
350.893	0.0041
351.263	0.0048
351.632	0.0038
352.001	0.0049
352.371	0.0032
352.74	0.0042
353.109	0.0048
353.478	0.0057
353.847	0.0055
354.217	0.0042
354.586	0.0057
354.955	0.0069
355.324	0.0069
355.693	0.0059
356.062	0.0032
356.43	0.0022
356.799	0.0027
357.168	0.0054
357.537	0.0069
357.906	0.0049
358.274	0.0022
358.643	0.0007
359.011	0.002
359.38	0.0012
359.749	-0.0001
360.117	-0.0017
360.486	-0.0007
360.854	0.0013
361.222	0.003
361.591	0.0035
361.959	0.0025
362.327	0.0018
362.695	0.0005
363.064	0.001
363.432	-0.0011
363.8	0.0008
364.168	0.001
364.536	0.002
364.904	0.0013
365.272	0.0013
365.64	0.0031
366.008	0.0042
366.376	0.0049
366.743	0.0055
367.111	0.0064
367.479	0.006
367.847	0.0045
368.214	0.0027
368.582	0.0022
368.949	0.0024
369.317	0.0023
369.684	0.0019
370.052	0.0027
370.419	0.0037
370.787	0.0042
371.154	0.003
371.521	0.0024
371.889	0.0024
372.256	0.0021
372.623	-0.0001
372.99	-0.0006
373.357	0.0002
373.724	0.0016
374.091	0.0012
374.458	-0.0003
374.825	-0.0015
375.192	-0.0006
375.559	-0.0008
375.926	0
376.293	0.0013
376.659	0.0029
377.026	0.0031
377.393	0.0011
377.759	-0.0008
378.126	-0.0006
378.492	0.0004
378.859	0.0017
379.225	0.0012
379.592	-0
379.958	-0.0007
380.325	0.0016
380.691	0.0008
381.057	0.0026
381.423	-0.0004
381.79	0.0025
382.156	0.0024
382.522	0.0033
382.888	0.0015
383.254	0.0001
383.62	-0.0005
383.986	-0.0002
384.352	0.0008
384.718	0.0019
385.084	0.0051
385.449	0.0041
385.815	0.0029
386.181	-0.0006
386.547	0.0003
386.912	-0.0012
387.278	-0.0032
387.643	-0.004
388.009	-0.0035
388.374	-0.0017
388.74	-0.0012
389.105	0.0015
389.471	0.0016
389.836	0.0001
390.201	-0.0018
390.566	-0.0022
390.932	-0.0008
391.297	0.0003
391.662	0.0001
392.027	-0.0026
392.392	-0.0056
392.757	-0.0053
393.122	-0.0043
393.487	-0.001
393.852	0.0001
394.217	0.0001
394.582	0.0004
394.946	0.001
395.311	0.004
395.676	0.0059
396.04	0.0015
396.405	-0.0006
396.77	-0.0025
397.134	0.0004
397.499	0.0012
397.863	-0.0012
398.227	-0.0024
398.592	-0.002
398.956	0.0002
399.32	0.0025
399.685	-0.0004
400.049	0.0008
400.413	0.0014
400.777	0.002
401.141	0.005
401.505	0.0042
401.869	0.0037
402.233	-0.0034
402.597	-0.0038
402.961	-0.0022
403.325	0.0003
403.689	0.0003
404.053	0.0001
404.416	-0.0018
404.78	-0.0023
405.144	-0.0027
405.507	-0.0009
405.871	-0.0016
406.234	0.0002
406.598	-0.0012
406.961	-0.0008
407.325	-0.0008
407.688	-0.0005
408.051	0.0011
408.415	-0.0005
408.778	-0.0008
409.141	-0.0027
409.504	-0.0016
409.867	-0.0002
410.23	-0.0001
410.593	-0.0004
410.956	-0.0002
411.319	0.002
411.682	0.0005
412.045	0.0001
412.408	-0.0006
412.771	0.0007
413.134	0.0003
413.496	-0.0006
413.859	-0.0014
414.222	-0.0015
414.584	-0.0017
414.947	0.0007
415.309	0.0012
415.672	0.0017
416.034	0.0011
416.396	0.0013
416.759	0.0008
417.121	-0.0006
417.483	-0.001
417.846	0.0009
418.208	0.0019
418.57	0.0026
418.932	0.002
419.294	0.0026
419.656	0.0017
420.018	0.0002
420.38	-0.0024
420.742	-0.0034
421.104	-0.0027
421.466	-0.004
421.827	-0.0034
422.189	-0.0048
422.551	-0.0023
422.912	-0.002
423.274	-0.0002
423.636	0.0023
423.997	0.0034
424.359	0.0035
424.72	0.0017
425.081	0
425.443	-0.0032
425.804	-0.0042
426.165	-0.0066
426.527	-0.0073
426.888	-0.0061
427.249	-0.0019
427.61	0.0019
427.971	-0.0006
428.332	-0.0005
428.693	-0.0034
429.054	-0.0036
429.415	-0.0057
429.776	-0.0034
430.137	-0.0009
430.498	-0.0015
430.858	-0.0008
431.219	0.0013
431.58	0.0001
431.94	0.0004
432.301	-0.0004
432.661	-0.0015
433.022	-0.0028
433.382	-0.0026
433.743	-0.0014
434.103	-0.0004
434.463	-0.005
434.824	-0.0032
435.184	-0.0021
435.544	-0.0005
435.904	-0.001
436.264	-0.0024
436.624	-0.0012
436.985	-0.0017
437.345	-0.0012
437.704	-0.0018
438.064	-0.0011
438.424	-0.0034
438.784	-0.003
439.144	0.002
439.504	0.0001
439.863	-0.0026
440.223	-0.0098
440.583	-0.0083
440.942	-0.0037
441.302	-0.0026
441.661	-0.0034
442.021	-0.0072
442.38	-0.0063
442.739	-0.006
443.099	-0.0054
443.458	-0.005
443.817	-0.0019
444.176	0.0022
444.536	0.0012
444.895	-0.0001
445.254	-0.003
445.613	0
445.972	0.0003
446.331	0.0015
446.69	-0.0022
447.049	-0.0017
447.407	-0.0024
447.766	-0.0015
448.125	-0.0016
448.484	-0.0006
448.842	0.0019
449.201	0.0018
449.559	0.0007
449.918	-0.0022
450.276	-0.0025
450.635	-0.0016
450.993	-0.0021
451.352	-0.0006
451.71	-0.0032
452.068	-0.003
452.426	-0.0032
452.785	-0.0043
453.143	-0.0015
453.501	-0.003
453.859	-0.0018
454.217	-0.0035
454.575	-0.0039
454.933	-0.0031
455.291	-0.0018
455.649	-0.0036
456.006	-0.0049
456.364	-0.0037
456.722	-0.0054
457.079	-0.0027
457.437	-0.0039
457.795	0.0028
458.152	0.0027
458.51	0.0008
458.867	-0.0028
459.225	-0.0034
459.582	-0.0006
459.939	-0.0012
460.297	-0.0041
460.654	-0.0074
461.011	-0.0056
461.368	-0.0024
461.725	-0.0001
462.082	-0.0006
462.44	-0.0013
462.797	-0.0031
463.153	-0.0019
463.51	-0.0021
463.867	0
464.224	-0.0044
464.581	-0.0073
464.938	-0.0069
465.294	-0.004
465.651	-0.0022
466.008	-0.0011
466.364	-0.0015
466.721	-0.001
467.077	-0.0036
467.434	-0.0019
467.79	0.0028
468.146	0.0041
468.503	0.0088
468.859	-0.0005
469.215	-0.005
469.571	-0.0128
469.927	-0.0078
470.284	-0.0061
470.64	-0.0006
470.996	0.001
471.352	0.003
471.707	-0.0007
472.063	-0.0033
472.419	-0.0041
472.775	-0.0046
473.131	-0.0009
473.486	0.0007
473.842	0.002
474.198	0.0008
474.553	0.0009
474.909	0.0013
475.264	0.0016
475.62	0.0016
475.975	-0.0008
476.331	-0.0006
476.686	-0.0018
477.041	0.003
477.396	0.0049
477.752	0.0064
478.107	0.0024
478.462	-0.0028
478.817	-0.0036
479.172	-0.0007
479.527	0.0015
479.882	0.0013
480.237	-0.0011
480.591	-0.0011
480.946	-0.003
481.301	-0.0014
481.656	-0.0057
482.01	-0.0043
482.365	-0.0078
482.72	-0.0027
483.074	-0.0008
483.429	0.0008
483.783	-0.0028
484.137	-0.0005
484.492	0.0009
484.846	0.0032
485.2	-0.0044
485.555	-0.0072
485.909	-0.0068
486.263	-0.0028
486.617	-0.0032
486.971	-0.0019
487.325	0.001
487.679	0.0051
488.033	0.0004
488.387	0.0049
488.741	0.0049
489.094	-0.0005
489.448	-0.0074
489.802	-0.0041
490.156	0.0036
490.509	-0.0018
490.863	-0.0089
491.216	-0.0069
491.57	-0.0018
491.923	-0.0009
492.277	-0.0054
492.63	-0.0072
492.983	-0.0071
493.337	-0.0062
493.69	-0.003
494.043	-0.0035
494.396	-0.0027
494.749	-0.0037
495.102	-0.0024
495.455	-0.0015
495.808	-0.0037
496.161	-0.0032
496.514	-0.0038
496.867	-0.0009
497.22	-0.0015
497.572	-0.004
497.925	-0.0032
498.278	-0.0046
498.63	0.0025
498.983	0.002
499.335	0.0017
499.688	-0.0063
500.04	-0.0095
500.393	-0.0106
500.745	-0.0069
501.097	-0.0035
501.449	-0.0037
501.802	-0.0053
502.154	-0.0056
502.506	-0.007
502.858	-0.0059
503.21	-0.0083
503.562	-0.0035
503.914	0.0009
504.266	0.0049
504.618	0.0007
504.969	-0.0009
505.321	-0.0092
505.673	-0.0069
506.025	-0.0083
506.376	-0.0023
506.728	-0.0038
507.079	-0.0058
507.431	-0.0075
507.782	-0.0053
508.134	-0.0028
508.485	-0.0044
508.836	-0.0062
509.188	-0.0078
509.539	-0.0054
509.89	-0.0074
510.241	-0.0095
510.592	-0.0039
510.943	-0.0045
511.294	-0.0027
511.645	-0.0098
511.996	-0.0081
512.347	-0.0082
512.698	-0.0044
513.049	-0.0032
513.399	-0.0027
513.75	-0.005
514.101	-0.002
514.451	-0.0006
514.802	-0.0003
515.152	-0.0041
515.503	-0.0042
515.853	-0.0059
516.203	-0.0077
516.554	-0.0085
516.904	-0.0063
517.254	-0.0033
517.604	-0.0041
517.955	-0.0095
518.305	-0.0068
518.655	-0.0035
519.005	0.003
519.355	0.0043
519.705	-0.0013
520.055	-0.0051
520.404	-0.0084
520.754	-0.0034
521.104	-0.0002
521.454	0.0021
521.803	0.0005
522.153	-0.0038
522.502	-0.0083
522.852	-0.0127
523.201	-0.0094
523.551	-0.0073
523.9	-0.0013
524.249	-0.0003
524.599	-0.0036
524.948	-0.0065
525.297	-0.0073
525.646	-0.0058
525.995	-0.0051
526.344	-0.0057
526.694	-0.0016
527.042	-0.0035
527.391	-0.0041
527.74	-0.0062
528.089	-0.0056
528.438	-0.0028
528.787	-0.0027
529.135	-0.0003
529.484	-0.0004
529.833	-0.0014
530.181	-0.0016
530.53	-0.0047
530.878	-0.0047
531.227	-0.0004
531.575	0.0035
531.923	-0.0001
532.271	-0.0061
532.62	-0.0075
532.968	-0.0063
533.316	-0.0059
533.664	-0.0055
534.012	-0.0009
534.36	0.0003
534.708	-0.0041
535.056	-0.0076
535.404	-0.0107
535.752	-0.0055
536.1	-0.0062
536.447	-0.0047
536.795	-0.0065
537.143	-0.0046
537.49	-0.0046
537.838	-0.0063
538.185	-0.0066
538.533	-0.0067
538.88	-0.0064
539.228	-0.0066
539.575	-0.0042
539.922	-0.0049
540.269	0.0002
540.617	-0.0012
540.964	-0.0032
541.311	-0.0087
541.658	-0.0068
542.005	-0.0008
542.352	-0.0009
542.699	-0.0049
543.045	-0.0118
543.392	-0.0095
543.739	-0.0089
544.086	-0.0032
544.432	-0.006
544.779	-0.002
545.126	-0.0058
545.472	-0.0052
545.819	-0.0065
546.165	-0.0031
546.512	-0.0009
546.858	0.0031
547.204	0.0003
547.55	-0.0011
547.897	-0.004
548.243	-0.0075
548.589	-0.0026
548.935	-0.0062
549.281	-0.0005
549.627	-0.0064
549.973	-0.0021
550.319	-0.0033
550.665	-0.0002
551.01	-0.0052
551.356	-0.0092
551.702	-0.0132
552.048	-0.0161
552.393	-0.0117
552.739	-0.0086
553.084	-0.003
553.43	-0.0068
553.775	-0.0085
554.12	-0.0065
554.466	0.0011
554.811	0.0032
555.156	-0.0002
555.502	-0.0001
555.847	-0.0023
556.192	-0.0019
556.537	-0.0082
556.882	-0.0058
557.227	-0.0112
557.572	-0.0053
557.917	0.001
558.261	0.0001
558.606	-0.0056
558.951	-0.0136
559.295	-0.0136
559.64	-0.0066
559.985	-0.0059
560.329	-0.001
560.674	-0.0053
561.018	-0.0106
561.363	-0.0125
561.707	-0.013
562.051	-0.0084
562.395	0.0009
562.74	0.0017
563.084	-0.0012
563.428	-0.0053
563.772	-0.0051
564.116	-0.0036
564.46	-0.0066
564.804	-0.0032
565.148	-0.0096
565.492	-0.0041
565.835	-0.0026
566.179	0.0048
566.523	-0.006
566.866	-0.0142
567.21	-0.0152
567.554	-0.0091
567.897	-0.0042
568.24	-0.0091
568.584	-0.0117
568.927	-0.0131
569.271	-0.0089
569.614	-0.0043
569.957	-0.0035
570.3	-0.0004
570.643	-0.0021
570.986	-0.0042
571.329	-0.0004
571.672	0.001
572.015	0.0003
572.358	-0.0011
572.701	0.0056
573.044	0.0002
573.387	-0.0016
573.729	-0.0013
574.072	0.0051
574.414	0.0028
574.757	0.0006
575.099	-0.014
575.442	-0.0181
575.784	-0.0054
576.127	0.0046
576.469	0.004
576.811	-0.0079
577.153	-0.0057
577.496	-0.0048
577.838	-0.0041
578.18	-0.019
578.522	-0.0213
578.864	-0.0244
579.206	0.0008
579.548	0.002
579.889	-0.0084
580.231	0.0018
580.573	0.0135
580.915	0.0094
581.256	-0.0138
581.598	-0.0316
581.939	-0.0333
582.281	-0.0056
582.622	-0.0066
582.964	-0.0017
583.305	-0.0149
583.646	-0.004
583.988	0.0325
584.329	0.0186
584.67	0.0049
585.011	-0.0239
585.352	-0.0338
585.693	-0.0232
586.034	-0.0298
586.375	-0.0243
586.716	-0.0172
587.057	-0.0089
587.398	0.008
587.738	0.0148
588.079	0.0044
588.42	-0.0009
588.76	-0.0219
589.101	-0.0177
589.441	-0.0244
589.782	-0.0089
590.122	0.0007
590.463	0.0036
590.803	-0.0085
591.143	-0.0095
591.483	-0.0166
591.823	-0.018
592.164	-0.0211
592.504	-0.0072
592.844	-0.0039
593.184	-0.0078
593.523	-0.0198
593.863	-0.0158
594.203	-0.0098
594.543	0.0008
594.883	-0.0076
595.222	0.0005
595.562	0.0164
595.901	0.014
596.241	0.0003
596.58	-0.0167
596.92	-0.0235
597.259	-0.0259
597.599	-0.0187
597.938	0.0009
598.277	0.0015
598.616	-0.0129
598.955	-0.0199
599.295	-0.0171
599.634	-0.0013
599.973	0.0045
600.312	0.0108
600.65	-0.0041
600.989	-0.0081
601.328	-0.0051
601.667	0.0166
602.005	0.0022
602.344	-0.0058
602.683	-0.0073
603.021	0.0005
603.36	-0.009
603.698	-0.0205
604.037	-0.0203
604.375	-0.0147
604.713	-0.0182
605.052	-0.0144
605.39	-0.0105
605.728	-0.0065
606.066	0.0107
606.404	0.0135
606.742	0.0061
607.08	-0.0039
607.418	-0.0169
607.756	-0.0078
608.094	-0.0044
608.431	0.0021
608.769	0.0083
609.107	-0.0101
609.444	-0.0014
609.782	-0.0124
610.12	0.0029
610.457	-0.0044
610.794	-0.019
611.132	-0.0215
611.469	-0.0222
611.806	-0.0136
612.144	-0.0217
612.481	-0.0142
612.818	-0.0014
613.155	-0.0043
613.492	-0.01
613.829	-0.0133
614.166	-0.0029
614.503	-0.003
614.84	-0.0087
615.176	-0.0095
615.513	-0.0062
615.85	-0.0042
616.187	-0.0008
616.523	-0.0075
616.86	-0.0081
617.196	-0.0031
617.533	0.0131
617.869	0.0047
618.205	-0.007
618.542	-0.0261
618.878	-0.029
619.214	-0.0184
619.55	-0.0111
619.886	-0.0076
620.222	-0.0215
620.558	-0.0136
620.894	-0.0012
621.23	-0.0005
621.566	-0.007
621.902	-0.0115
622.238	-0.013
622.573	0.0043
622.909	-0.0052
623.244	-0.0015
623.58	-0.0251
623.916	-0.0251
624.251	-0.0106
624.586	0.0113
624.922	0.0121
625.257	-0.0077
625.592	-0.0175
625.927	-0.0141
626.263	-0.0101
626.598	-0.0089
626.933	-0.0062
627.268	0.0012
627.603	-0.006
627.938	-0.0133
628.272	-0.0099
628.607	-0.0119
628.942	-0.009
629.277	-0.0129
629.611	0.0027
629.946	0.0123
630.281	0.0016
630.615	-0.0057
630.949	-0.0196
631.284	-0.0139
631.618	-0.0091
631.953	-0.0003
632.287	0
632.621	-0.0096
632.955	-0.0118
633.289	-0.0093
633.623	-0.004
633.957	-0.0038
634.291	-0.0043
634.625	0.0004
634.959	-0.0054
635.293	0.0016
635.627	0.0005
635.96	0.002
636.294	-0.0064
636.627	-0.0071
636.961	0.005
637.294	0.0034
637.628	-0.0021
637.961	-0.0115
638.295	-0.0069
638.628	0.0021
638.961	0.0034
639.294	0.0032
639.628	-0.0084
639.961	-0.0145
640.294	-0.0131
640.627	-0.0049
640.96	0.0031
641.293	0.0005
641.625	-0.0015
641.958	-0.0065
642.291	-0.0113
642.624	-0.0101
642.956	-0.0066
643.289	-0.0044
643.621	-0.006
643.954	-0.009
644.286	-0.0094
644.619	-0.0111
644.951	-0.0114
645.283	-0.0106
645.616	-0.0073
645.948	-0.0057
646.28	0.0009
646.612	0.0007
646.944	0.0024
647.276	-0.0045
647.608	-0.0013
647.94	0.0003
648.272	-0.0017
648.603	-0.0065
648.935	-0.0045
649.267	0.0012
649.598	0.0044
649.93	-0.0011
650.261	-0.0034
650.593	0.0003
650.924	0.0096
651.256	0.0089
651.587	0.0015
651.918	-0.0061
652.25	-0.0089
652.581	-0.0112
652.912	-0.0138
653.243	-0.0131
653.574	-0.0093
653.905	-0.0058
654.236	-0.0072
654.567	-0.0055
654.897	-0.0048
655.228	-0.0015
655.559	0.0024
655.89	0.0062
656.22	0.0014
656.551	-0.0068
656.881	-0.0124
657.212	-0.0082
657.542	-0.0041
657.872	-0.0001
658.203	0.0086
658.533	0.1233
658.863	0.0649
659.193	0.0097
659.523	-0.0488
659.853	-0.1043
660.183	-0.0616
660.513	-0.0289
660.843	-0.0164
661.173	-0.0069
661.503	-0.0084
661.833	-0.0061
662.162	-0.0072
662.492	-0.0074
662.822	-0.0076
663.151	-0.0063
663.481	-0.0004
663.81	0.0025
664.139	0.0032
664.469	-0.0003
664.798	-0.0031
665.127	0.001
665.456	0.0056
665.785	0.0059
666.114	0.0002
666.443	-0.0037
666.772	-0.0026
667.101	-0.0016
667.43	0.0003
667.759	0.0022
668.088	0.0044
668.416	-0.0017
668.745	-0.0003
669.074	-0.0035
669.402	0.0043
669.731	0.0025
670.059	0.0081
670.388	0.004
670.716	0.0037
671.044	-0.0026
671.372	-0.0034
671.701	-0.003
672.029	0.0041
672.357	0.0062
672.685	0.0051
673.013	0.0019
673.341	-0.0058
673.669	-0.0094
673.996	-0.0109
674.324	0.0083
674.652	0.0058
674.98	0.0055
675.307	-0.0055
675.635	-0.0046
675.962	-0.0048
676.29	-0.0069
676.617	-0.0049
676.945	-0.007
677.272	-0.01
677.599	-0.0076
677.926	-0.0052
678.253	-0.002
678.581	-0.0122
678.908	-0.0069
679.235	0.0021
679.561	0.0027
679.888	-0.0097
680.215	-0.0153
680.542	0.0023
680.869	0.003
681.195	-0.0031
681.522	-0.011
681.849	-0.0058
682.175	0.004
682.502	0.0038
682.828	0.0005
683.154	-0.0064
683.481	-0.008
683.807	-0.0106
684.133	0.0052
684.459	0.0056
684.785	0.0132
685.111	-0.0043
685.437	-0.0058
685.763	-0.0087
686.089	0.0009
686.415	0.0057
686.741	0.0001
687.067	0.0023
687.392	-0.0002
687.718	0.0048
688.043	0.0053
688.369	0.004
688.694	-0.0026
689.02	-0.0093
689.345	-0.0125
689.67	-0.0087
689.996	-0.0085
690.321	-0.0041
690.646	-0.005
690.971	-0.0032
691.296	-0.0012
691.621	0.005
691.946	0.0078
692.271	0.0107
692.596	0.0032
692.921	-0.0015
693.245	-0.0096
693.57	-0.0004
693.895	0.0124
694.219	0.0131
694.544	0.0007
694.868	-0.0119
695.193	-0.0108
695.517	-0.0042
695.841	-0.0017
696.166	-0.0016
696.49	-0.0009
696.814	-0.003
697.138	-0.0009
697.462	0.0013
697.786	0.0069
698.11	0.0121
698.434	0.0056
698.758	-0.0067
699.081	-0.0204
699.405	-0.0104
699.729	0.0199
700.052	0.0182
700.376	0.0052
700.7	-0.0144
701.023	-0.0179
701.346	-0.0092
701.67	-0.0062
701.993	-0.0047
702.316	-0.0049
702.639	-0.0032
702.963	-0.0029
703.286	-0.0093
703.609	-0.0076
703.932	-0.0051
704.255	-0.0005
704.578	-0.0009
704.9	0.0004
705.223	0.0006
705.546	0.0007
705.868	-0.0042
706.191	-0.0076
706.514	-0.0105
706.836	-0.0063
707.159	0.0012
707.481	0.0015
707.803	-0.0019
708.126	-0.0011
708.448	0.0001
708.77	0.0068
709.092	0.0056
709.414	0.0114
709.736	0.0101
710.058	0.0034
710.38	-0.0048
710.702	-0.0085
711.024	-0.0087
711.345	-0.0087
711.667	-0.0107
711.989	-0.0071
712.31	-0.0055
712.632	-0.0014
712.953	-0.0005
713.275	0.0041
713.596	0.0047
713.917	-0.0028
714.239	-0.01
714.56	-0.0136
714.881	-0.0067
715.202	-0.0013
715.523	0.0064
715.844	-0.0006
716.165	-0.0007
716.486	-0.0071
716.807	-0.0037
717.128	-0.0049
717.448	-0.0044
717.769	-0.0061
718.09	-0.0038
718.41	-0.0051
718.731	-0.0046
719.051	-0.0099
719.372	-0.0092
719.692	-0.0042
720.012	0.0018
720.332	0
720.653	0.0005
720.973	0.0098
721.293	0.0025
721.613	-0.0047
721.933	-0.0164
722.253	-0.0063
722.573	-0.006
722.892	-0.0092
723.212	-0.0116
723.532	-0.0053
723.851	0.0018
724.171	0.0013
724.491	0.004
724.81	0.0015
725.129	0.0027
725.449	0.0027
725.768	0.0026
726.087	0.0027
726.407	-0.0039
726.726	-0.0085
727.045	-0.0165
727.364	-0.0116
727.683	-0.008
728.002	0.004
728.321	-0.0019
728.64	-0.0037
728.958	-0.0072
729.277	-0.0066
729.596	-0.0069
729.914	-0.0038
730.233	-0.0016
730.551	0.0047
730.87	0.0035
731.188	0.0047
731.507	-0.0035
731.825	-0.0068
732.143	-0.0082
732.461	0.0016
732.779	0.0026
733.097	0.003
733.415	0.0083
733.733	0.0164
734.051	0.0058
734.369	-0.0017
734.687	-0.0151
735.005	-0.0108
735.322	-0.0101
735.64	0.0001
735.957	-0
736.275	-0.0009
736.592	-0.0004
736.91	0.0012
737.227	0.0002
737.544	-0.0132
737.862	-0.0127
738.179	-0.0113
738.496	0.0028
738.813	0
739.13	-0.0138
739.447	-0.016
739.764	-0.0072
740.081	0.0025
740.398	-0.0058
740.714	-0.0109
741.031	-0.0122
741.348	-0.0056
741.664	0.0024
741.981	0.0144
742.297	0.0031
742.614	-0.0098
742.93	-0.0232
743.246	-0.0102
743.563	-0.001
743.879	0.0026
744.195	-0.0039
744.511	-0.0076
744.827	-0.0104
745.143	-0.0028
745.459	0.0028
745.775	0.0024
746.091	-0.0026
746.406	-0.0048
746.722	-0.0061
747.038	-0.008
747.353	-0.0077
747.669	-0.0034
747.984	-0.0047
748.3	0.001
748.615	0.0008
748.93	0.0047
749.246	-0.0043
749.561	-0.0061
749.876	-0.0043
750.191	-0.0017
750.506	-0.008
750.821	-0.0087
751.136	-0.0036
751.451	0.0054
751.766	0.0003
752.08	-0.0012
752.395	-0.003
752.71	-0.0008
753.024	-0.0017
753.339	-0.001
753.653	-0.0037
753.968	-0.0021
754.282	0.0031
754.596	0.0067
754.911	0.0009
755.225	0.0015
755.539	-0.0024
755.853	-0.0014
756.167	-0.0051
756.481	-0.0003
756.795	-0.0043
757.109	-0.0067
757.423	-0.0093
757.736	-0.0053
758.05	-0.0002
758.364	0.0059
758.677	0.006
758.991	0.0023
759.304	0.0018
759.618	0.0055
759.931	0.0062
760.244	0.0089
760.558	-0.0004
760.871	-0.0046
761.184	-0.0191
761.497	-0.0203
761.81	-0.0159
762.123	-0.002
762.436	0.0034
762.749	-0.0025
763.062	-0.0048
763.374	0.002
763.687	-0.0019
764	-0.0046
764.312	-0.0198
764.625	-0.0159
764.937	-0.0199
765.25	-0.0103
765.562	0.001
765.874	0.0002
766.186	0.0016
766.499	-0.0099
766.811	-0.0039
767.123	0.0088
767.435	0.0108
767.747	0.0068
768.059	-0.0098
768.37	-0.01
768.682	-0.012
768.994	-0.0101
769.306	-0.0107
769.617	-0.0064
769.929	-0.006
770.24	-0.0081
770.552	-0.0029
770.863	-0.0008
771.174	-0.0019
771.486	-0.0082
771.797	-0.0114
772.108	-0.0154
772.419	-0.0185
772.73	-0.0135
773.041	-0.0001
773.352	0.0035
773.663	0.0002
773.974	-0.0017
774.285	-0.0041
774.595	-0.0026
774.906	-0.0037
775.217	0.0024
775.527	0.0012
775.838	-0.001
776.148	-0.0055
776.458	-0.0046
776.769	-0.0062
777.079	-0.008
777.389	-0.0044
777.699	-0.0002
778.009	0.0039
778.319	0.0039
778.629	-0.0047
778.939	-0.0045
779.249	-0.0067
779.559	0.0018
779.869	-0.0016
780.178	-0.002
780.488	-0.0097
780.798	-0.0089
781.107	-0.0056
781.417	0.0024
781.726	0.0043
782.035	0.0028
782.345	-0.0018
782.654	-0.0017
782.963	-0.0033
783.272	-0.0006
783.581	0.0036
783.89	0.012
784.199	0.008
784.508	-0.0015
784.817	-0.0187
785.126	-0.0188
785.434	-0.0142
785.743	-0.0083
786.052	-0.0005
786.36	-0.0022
786.669	0.0011
786.977	-0.0048
787.285	-0.0065
787.594	-0.0098
787.902	-0.0051
788.21	-0.0034
788.518	0.007
788.826	0.004
789.135	0.0022
789.442	-0.0093
789.75	-0.0114
790.058	-0.0104
790.366	-0.0037
790.674	-0.0024
790.981	0.0047
791.289	0.0079
791.597	0.0018
791.904	-0.0068
792.212	-0.0089
792.519	-0.0101
792.826	-0.0021
793.134	-0.0042
793.441	0.0021
793.748	-0.0004
794.055	-0.0002
794.362	-0.0002
794.669	-0.0084
794.976	-0.0083
795.283	-0.0145
795.59	-0.0027
795.897	-0.0104
796.203	-0.0072
796.51	0.0058
796.817	0.0157
797.123	0.0052
797.43	-0.0102
797.736	-0.0172
798.042	-0.0129
798.349	-0.0124
798.655	-0.0192
798.961	-0.0102
799.267	-0.0081
799.573	-0.0011
799.879	-0.0011
800.185	0.0044
800.491	0.0022
800.797	-0.0042
801.103	-0.011
801.408	-0.009
801.714	0.001
802.02	-0.0028
802.325	-0
802.631	-0.01
802.936	0.0012
803.242	-0
803.547	0.0001
803.852	-0.0059
804.157	-0.0063
804.462	-0.0078
804.768	-0.0114
805.073	-0.0085
805.378	-0.0032
805.682	-0.0041
805.987	-0.0059
806.292	0.0001
806.597	0.0026
806.902	0.0012
807.206	-0.0076
807.511	-0.003
807.815	-0.0023
808.12	0.0054
808.424	0.0056
808.728	0.013
809.033	0.0129
809.337	0.0004
809.641	-0.0141
809.945	-0.0163
810.249	-0.0036
810.553	-0.0059
810.857	-0.0109
811.161	-0.0173
811.465	-0.0134
811.768	-0.012
812.072	-0.0136
812.376	-0.0049
812.679	0.0065
812.983	0.0032
813.286	-0.005
813.59	-0.0178
813.893	-0.0076
814.196	-0.0084
814.499	-0.0001
814.803	-0.0043
815.106	-0.0015
815.409	-0.014
815.712	-0.0153
816.015	-0.007
816.318	0.0015
816.62	0.0004
816.923	-0.0083
817.226	-0.0136
817.528	-0.0115
817.831	-0.0016
818.133	-0.0005
818.436	-0.0018
818.738	-0.0127
819.041	-0.0122
819.343	-0.0123
819.645	-0.0032
819.947	0.0095
820.249	0.0106
820.551	0.0069
820.853	-0.0019
821.155	-0.0004
821.457	-0.0014
821.759	-0.0017
822.061	-0.0004
822.362	-0.0039
822.664	-0.002
822.966	-0.0059
823.267	0.0028
823.569	-0.0031
823.87	-0.0122
824.171	-0.0222
824.473	-0.0245
824.774	-0.0204
825.075	-0.0216
825.376	-0.0168
825.677	-0.0073
825.978	0.0019
826.279	-0.0016
826.58	-0.0129
826.881	-0.0188
827.181	-0.0212
827.482	-0.0157
827.783	-0.0071
828.083	0.0044
828.384	0.0039
828.684	-0.0011
828.985	-0.0018
829.285	0.0088
829.585	0.0092
829.885	0.0047
830.185	-0.0014
830.486	-0.0048
830.786	-0.0124
831.086	-0.0174
831.385	-0.0128
831.685	-0.0067
831.985	-0.0075
832.285	-0.0144
832.585	-0.0146
832.884	-0.0183
833.184	-0.0178
833.483	-0.0156
833.783	-0.0101
834.082	-0.0037
834.381	-0.0052
834.681	0.0005
834.98	-0.0038
835.279	-0.0131
835.578	-0.0108
835.877	-0.0171
836.176	-0.0082
836.475	-0.0147
836.774	-0.0054
837.072	-0.0035
837.371	0.0075
837.67	-0.0003
837.968	-0.0046
838.267	-0.0135
838.565	-0.016
838.864	-0.02
839.162	-0.0299
839.46	-0.0228
839.759	-0.0099
840.057	0.003
840.355	0.0134
840.653	-0.0044
840.951	-0.0052
841.249	-0.0222
841.547	-0.0165
841.845	-0.0153
842.142	-0.0084
842.44	-0.006
842.738	-0.0026
843.035	-0.0042
843.333	-0.0093
843.63	-0.0162
843.928	0.0008
844.225	0.0062
844.522	-0.0003
844.82	-0.02
845.117	-0.0125
845.414	0.0027
845.711	0.0107
846.008	-0.0085
846.305	-0.0168
846.602	-0.01
846.898	0.0009
847.195	0.0025
847.492	-0.0089
847.788	0.002
848.085	0.0032
848.382	0.0033
848.678	-0.0026
848.974	-0.0082
849.271	-0.0077
849.567	-0.0233
849.863	-0.0212
850.159	-0.0192
850.455	0.0012
850.751	0.0054
851.047	0.0086
851.343	-0.0006
851.639	-0.002
851.935	0.003
852.23	0.004
852.526	-0.01
852.822	-0.0113
853.117	-0.0077
853.413	-0.0034
853.708	-0.003
854.003	0.0047
854.299	0.0038
854.594	0.0014
854.889	-0.0068
855.184	-0.0014
855.479	-0.0019
855.774	-0.0069
856.069	0.0055
856.364	-0.0053
856.659	0.0064
856.954	-0.001
857.248	0.0077
857.543	-0.0122
857.837	-0.0314
858.132	-0.0367
858.426	-0.0235
858.721	-0.0145
859.015	-0.0146
859.309	-0.0063
859.604	0.0178
859.898	0.0203
860.192	0.011
860.486	-0.0144
860.78	-0.0254
861.074	-0.0176
861.367	-0.0194
861.661	0.0242
861.955	0.019
862.248	0.0436
862.542	-0.0087
862.836	-0.0185
863.129	-0.0141
863.422	0.0017
863.716	-0.0041
864.009	-0.0301
864.302	-0.0277
864.595	-0.0124
864.889	0.008
865.182	0.0112
865.475	0.0089
865.767	0.0028
866.06	0.0049
866.353	-0.0197
866.646	-0.0006
866.938	-0.002
867.231	0.0199
867.524	-0.0015
867.816	-0.0099
868.109	-0.0119
868.401	-0.0193
868.693	-0.0091
868.985	-0.0081
869.278	-0.0073
869.57	-0.0055
869.862	-0.0294
870.154	-0.0223
870.446	-0.006
870.738	0.0252
871.029	0.0126
871.321	0.0014
871.613	0.0002
871.904	-0.0185
872.196	-0.0211
872.487	-0.0559
872.779	-0.0136
873.07	-0.0071
873.362	0.0029
873.653	-0.0252
873.944	-0.0103
874.235	0.0089
874.526	0.0262
874.817	-0.0103
875.108	-0.0125
875.399	-0.009
875.69	0.0022
875.981	-0.0016
876.271	-0.0037
876.562	-0.0186
876.853	-0.0353
877.143	-0.0538
877.434	-0.0413
877.724	-0.0215
878.014	-0.0183
878.305	-0.0042
878.595	-0.0015
878.885	-0.0171
879.175	-0.0088
879.465	0.0054
879.755	0.0297
880.045	0.0114
880.335	-0.0039
880.624	0.0003
880.914	0.0003
