Data from 27SS02LU_071217_1a_Absorbance_20-43-18-874.txt Node
Date: Tue Jul 18 20:43:18 MDT 2017
User: Tank Lab
Spectrometer: FLMS01220
Trigger mode: 0
Integration Time (sec): 1.000000E-1
Scans to average: 10
Electric dark correction enabled: true
Nonlinearity correction enabled: false
Boxcar width: 1
XAxis mode: Wavelengths
Number of Pixels in Spectrum: 2048
>>>>>Begin Spectral Data<<<<<
179.47	0.4472
179.856	0.4472
180.241	1.478
180.626	-0
181.011	-0
181.396	0.0784
181.781	0.3593
182.166	0.4953
182.551	0.4566
182.936	-0
183.321	-0
183.706	-0.0831
184.091	0.2392
184.476	0.6551
184.86	-0
185.245	-0.2098
185.63	-0
186.015	0.0662
186.399	0.5433
186.784	0.1122
187.169	0.1027
187.553	-0.1083
187.938	0.1148
188.322	0.1204
188.707	0.1076
189.091	0.0737
189.475	0.0921
189.86	0.1158
190.244	0.1613
190.629	0.1635
191.013	0.1894
191.397	0.2279
191.781	0.2615
192.165	0.2868
192.55	0.299
192.934	0.3417
193.318	0.3619
193.702	0.3853
194.086	0.3913
194.47	0.41
194.854	0.4076
195.238	0.3949
195.622	0.3915
196.006	0.3897
196.389	0.384
196.773	0.3798
197.157	0.3781
197.541	0.3768
197.924	0.3705
198.308	0.356
198.692	0.3499
199.075	0.3415
199.459	0.335
199.843	0.3301
200.226	0.3219
200.61	0.3159
200.993	0.3061
201.376	0.2975
201.76	0.2988
202.143	0.3009
202.527	0.2998
202.91	0.2873
203.293	0.2786
203.676	0.2742
204.059	0.2735
204.443	0.2765
204.826	0.2742
205.209	0.2691
205.592	0.2599
205.975	0.2562
206.358	0.259
206.741	0.2573
207.124	0.2548
207.507	0.2502
207.89	0.2479
208.273	0.246
208.655	0.2409
209.038	0.2407
209.421	0.2384
209.804	0.2406
210.186	0.2355
210.569	0.2342
210.951	0.2303
211.334	0.2304
211.717	0.2281
212.099	0.2282
212.482	0.2262
212.864	0.2248
213.246	0.2205
213.629	0.2202
214.011	0.2177
214.393	0.2176
214.776	0.2144
215.158	0.2144
215.54	0.2116
215.922	0.2116
216.305	0.2099
216.687	0.2081
217.069	0.2063
217.451	0.2044
217.833	0.2039
218.215	0.2004
218.597	0.1999
218.979	0.1983
219.361	0.1976
219.742	0.1916
220.124	0.1897
220.506	0.1868
220.888	0.1869
221.27	0.1819
221.651	0.1796
222.033	0.1785
222.415	0.178
222.796	0.1747
223.178	0.1709
223.559	0.169
223.941	0.1672
224.322	0.1657
224.704	0.1653
225.085	0.165
225.466	0.1642
225.848	0.1588
226.229	0.1581
226.61	0.1561
226.992	0.1575
227.373	0.1533
227.754	0.151
228.135	0.1475
228.516	0.1487
228.897	0.1486
229.278	0.1494
229.659	0.1448
230.04	0.1421
230.421	0.1374
230.802	0.1371
231.183	0.1375
231.564	0.139
231.944	0.1382
232.325	0.1342
232.706	0.1319
233.087	0.1302
233.467	0.13
233.848	0.1301
234.229	0.1276
234.609	0.1264
234.99	0.1237
235.37	0.1242
235.751	0.1246
236.131	0.1249
236.511	0.1244
236.892	0.1238
237.272	0.1215
237.652	0.1202
238.033	0.1171
238.413	0.1169
238.793	0.1153
239.173	0.1154
239.553	0.1145
239.933	0.1146
240.313	0.1143
240.694	0.113
241.074	0.1114
241.453	0.1106
241.833	0.1111
242.213	0.1112
242.593	0.1113
242.973	0.1094
243.353	0.1083
243.732	0.1059
244.112	0.105
244.492	0.1038
244.872	0.1046
245.251	0.1054
245.631	0.1057
246.01	0.1041
246.39	0.1027
246.769	0.1031
247.149	0.1027
247.528	0.1023
247.908	0.1006
248.287	0.102
248.666	0.1022
249.045	0.1017
249.425	0.0988
249.804	0.0973
250.183	0.0985
250.562	0.0984
250.941	0.0978
251.32	0.0958
251.699	0.0966
252.078	0.0969
252.457	0.0964
252.836	0.0945
253.215	0.0949
253.594	0.0956
253.973	0.0949
254.352	0.0925
254.731	0.0924
255.109	0.0936
255.488	0.0954
255.867	0.0941
256.245	0.094
256.624	0.0924
257.002	0.0922
257.381	0.0908
257.759	0.0916
258.138	0.0917
258.516	0.0929
258.895	0.0926
259.273	0.0914
259.651	0.0909
260.03	0.0905
260.408	0.0909
260.786	0.089
261.164	0.0889
261.542	0.088
261.921	0.0895
262.299	0.089
262.677	0.0876
263.055	0.0866
263.433	0.0856
263.811	0.0867
264.188	0.0836
264.566	0.0839
264.944	0.0836
265.322	0.0857
265.7	0.0843
266.077	0.0845
266.455	0.0823
266.833	0.082
267.21	0.0809
267.588	0.0817
267.966	0.081
268.343	0.0797
268.721	0.0803
269.098	0.0803
269.475	0.0796
269.853	0.0778
270.23	0.077
270.607	0.0781
270.985	0.0784
271.362	0.0766
271.739	0.0756
272.116	0.0735
272.494	0.0749
272.871	0.074
273.248	0.0748
273.625	0.0749
274.002	0.0737
274.379	0.0747
274.756	0.0745
275.132	0.0749
275.509	0.0728
275.886	0.0719
276.263	0.0728
276.64	0.0724
277.016	0.0708
277.393	0.0689
277.77	0.0679
278.146	0.0681
278.523	0.0683
278.899	0.0688
279.276	0.0684
279.652	0.0689
280.029	0.0686
280.405	0.0687
280.782	0.068
281.158	0.0682
281.534	0.0676
281.91	0.0672
282.287	0.0655
282.663	0.0661
283.039	0.0665
283.415	0.066
283.791	0.0645
284.167	0.0629
284.543	0.063
284.919	0.0636
285.295	0.064
285.671	0.0638
286.047	0.0628
286.423	0.0601
286.799	0.0598
287.174	0.0594
287.55	0.0596
287.926	0.0602
288.301	0.0586
288.677	0.0585
289.053	0.0568
289.428	0.0569
289.804	0.0557
290.179	0.0555
290.555	0.056
290.93	0.0567
291.305	0.0562
291.681	0.0556
292.056	0.0574
292.431	0.0562
292.806	0.0572
293.182	0.0555
293.557	0.0574
293.932	0.0569
294.307	0.0549
294.682	0.0535
295.057	0.052
295.432	0.0535
295.807	0.0522
296.182	0.0505
296.557	0.0491
296.932	0.0501
297.306	0.0504
297.681	0.0505
298.056	0.0509
298.43	0.0512
298.805	0.0499
299.18	0.0481
299.554	0.0476
299.929	0.0484
300.303	0.049
300.678	0.0499
301.052	0.0499
301.427	0.0484
301.801	0.0473
302.175	0.0468
302.55	0.0473
302.924	0.0476
303.298	0.0466
303.672	0.0467
304.046	0.0474
304.421	0.0473
304.795	0.0464
305.169	0.0443
305.543	0.0428
305.917	0.0422
306.291	0.0423
306.664	0.0448
307.038	0.0454
307.412	0.0456
307.786	0.0444
308.16	0.0447
308.533	0.0429
308.907	0.0432
309.281	0.0426
309.654	0.0448
310.028	0.045
310.401	0.0453
310.775	0.0448
311.148	0.0438
311.522	0.0424
311.895	0.0412
312.268	0.0398
312.642	0.0399
313.015	0.0397
313.388	0.0392
313.761	0.0395
314.135	0.0373
314.508	0.0382
314.881	0.037
315.254	0.0381
315.627	0.0386
316	0.0393
316.373	0.0391
316.746	0.0365
317.118	0.0358
317.491	0.036
317.864	0.0364
318.237	0.0357
318.61	0.0351
318.982	0.0356
319.355	0.0365
319.727	0.0364
320.1	0.0378
320.473	0.0379
320.845	0.0369
321.218	0.036
321.59	0.0354
321.962	0.0374
322.335	0.0373
322.707	0.0373
323.079	0.0365
323.452	0.0355
323.824	0.0354
324.196	0.0354
324.568	0.0348
324.94	0.0341
325.312	0.0346
325.684	0.0347
326.056	0.0333
326.428	0.032
326.8	0.0307
327.172	0.0313
327.544	0.0306
327.915	0.0318
328.287	0.0307
328.659	0.0304
329.031	0.0305
329.402	0.0306
329.774	0.0307
330.145	0.0295
330.517	0.0294
330.888	0.0284
331.26	0.0272
331.631	0.0271
332.003	0.0272
332.374	0.0281
332.745	0.028
333.117	0.0274
333.488	0.0285
333.859	0.0279
334.23	0.0271
334.601	0.0255
334.972	0.024
335.343	0.0258
335.714	0.0251
336.085	0.0263
336.456	0.0255
336.827	0.0255
337.198	0.0254
337.569	0.0256
337.94	0.0259
338.31	0.0255
338.681	0.0251
339.052	0.0237
339.422	0.0232
339.793	0.023
340.164	0.0246
340.534	0.0233
340.905	0.0241
341.275	0.0229
341.645	0.0252
342.016	0.0242
342.386	0.0258
342.756	0.0232
343.127	0.0209
343.497	0.0199
343.867	0.021
344.237	0.0217
344.607	0.0214
344.977	0.0221
345.347	0.0223
345.717	0.0205
346.087	0.0193
346.457	0.0184
346.827	0.0198
347.197	0.0207
347.567	0.0203
347.936	0.0211
348.306	0.0207
348.676	0.0232
349.046	0.0233
349.415	0.0231
349.785	0.0206
350.154	0.0191
350.524	0.0191
350.893	0.0196
351.263	0.0198
351.632	0.0201
352.001	0.0212
352.371	0.0202
352.74	0.0197
353.109	0.0175
353.478	0.0182
353.847	0.0173
354.217	0.0177
354.586	0.0172
354.955	0.0186
355.324	0.0192
355.693	0.0206
356.062	0.0193
356.43	0.0192
356.799	0.0184
357.168	0.0192
357.537	0.0193
357.906	0.0179
358.274	0.0171
358.643	0.0152
359.011	0.0166
359.38	0.0162
359.749	0.0157
360.117	0.0137
360.486	0.0126
360.854	0.0143
361.222	0.0154
361.591	0.0157
361.959	0.0146
362.327	0.0144
362.695	0.0138
363.064	0.0125
363.432	0.0111
363.8	0.0121
364.168	0.0149
364.536	0.0159
364.904	0.0149
365.272	0.0122
365.64	0.0117
366.008	0.0123
366.376	0.0138
366.743	0.0142
367.111	0.0161
367.479	0.0161
367.847	0.0155
368.214	0.013
368.582	0.0125
368.949	0.0139
369.317	0.0154
369.684	0.0151
370.052	0.0151
370.419	0.0146
370.787	0.0153
371.154	0.0129
371.521	0.0129
371.889	0.0132
372.256	0.0143
372.623	0.0126
372.99	0.0101
373.357	0.0103
373.724	0.0108
374.091	0.0103
374.458	0.0084
374.825	0.0068
375.192	0.0079
375.559	0.0079
375.926	0.0095
376.293	0.0113
376.659	0.0131
377.026	0.013
377.393	0.0122
377.759	0.0101
378.126	0.0111
378.492	0.0112
378.859	0.0113
379.225	0.0107
379.592	0.0089
379.958	0.009
380.325	0.0089
380.691	0.0088
381.057	0.0103
381.423	0.0097
381.79	0.0133
382.156	0.0134
382.522	0.0131
382.888	0.0105
383.254	0.0081
383.62	0.0081
383.986	0.0078
384.352	0.008
384.718	0.0076
385.084	0.0106
385.449	0.0103
385.815	0.0111
386.181	0.0092
386.547	0.0117
386.912	0.0098
387.278	0.0062
387.643	0.0061
388.009	0.0078
388.374	0.0096
388.74	0.0083
389.105	0.0072
389.471	0.0067
389.836	0.0066
390.201	0.0082
390.566	0.0077
390.932	0.0085
391.297	0.0079
391.662	0.0099
392.027	0.0065
392.392	0.0044
392.757	0.0039
393.122	0.0068
393.487	0.0074
393.852	0.0066
394.217	0.005
394.582	0.0072
394.946	0.0091
395.311	0.0111
395.676	0.0127
396.04	0.0079
396.405	0.0067
396.77	0.0042
397.134	0.0079
397.499	0.0079
397.863	0.0052
398.227	0.0026
398.592	0.0035
398.956	0.0055
399.32	0.0077
399.685	0.0055
400.049	0.0073
400.413	0.0101
400.777	0.0105
401.141	0.0121
401.505	0.01
401.869	0.0098
402.233	0.0053
402.597	0.0034
402.961	0.0036
403.325	0.005
403.689	0.0069
404.053	0.0077
404.416	0.0055
404.78	0.0039
405.144	0.0048
405.507	0.0067
405.871	0.0059
406.234	0.004
406.598	0.0024
406.961	0.0038
407.325	0.0061
407.688	0.0047
408.051	0.006
408.415	0.003
408.778	0.0056
409.141	0.0036
409.504	0.0069
409.867	0.0056
410.23	0.0046
410.593	0.0015
410.956	0.0047
411.319	0.0077
411.682	0.0102
412.045	0.0073
412.408	0.0044
412.771	0.0038
413.134	0.0042
413.496	0.0048
413.859	0.0016
414.222	0.0013
414.584	0.0011
414.947	0.004
415.309	0.0063
415.672	0.0073
416.034	0.0074
416.396	0.008
416.759	0.0069
417.121	0.006
417.483	0.0034
417.846	0.0069
418.208	0.007
418.57	0.0078
418.932	0.0068
419.294	0.007
419.656	0.0053
420.018	0.0039
420.38	0.0031
420.742	0.0036
421.104	0.0045
421.466	0.0033
421.827	0.0031
422.189	0.0019
422.551	0.0018
422.912	0.0028
423.274	0.0036
423.636	0.0051
423.997	0.0069
424.359	0.0071
424.72	0.0094
425.081	0.0062
425.443	0.0033
425.804	0.0005
426.165	0.0005
426.527	0.0002
426.888	0.0008
427.249	0.0023
427.61	0.0056
427.971	0.0031
428.332	0.0024
428.693	-0.0012
429.054	-0.0014
429.415	-0.0003
429.776	-0.0002
430.137	0.0043
430.498	0.0027
430.858	0.0061
431.219	0.0062
431.58	0.0044
431.94	0.0067
432.301	0.0068
432.661	0.0078
433.022	0.0042
433.382	0.0036
433.743	0.0018
434.103	0.0022
434.463	-0.0034
434.824	-0.0019
435.184	-0
435.544	0.0025
435.904	0.0018
436.264	-0.0008
436.624	0.0015
436.985	0.0047
437.345	0.0048
437.704	0.0033
438.064	0.0028
438.424	0.0028
438.784	0.0043
439.144	0.0109
439.504	0.008
439.863	0.0041
440.223	-0.0063
440.583	-0.0033
440.942	-0.0002
441.302	0.0013
441.661	0.0007
442.021	-0.0013
442.38	0.0007
442.739	0.0021
443.099	0.0021
443.458	0.0009
443.817	0.0049
444.176	0.0079
444.536	0.0068
444.895	0.0032
445.254	0.0025
445.613	0.0055
445.972	0.0022
446.331	0.0022
446.69	-0.0013
447.049	0.002
447.407	0.0014
447.766	0.0036
448.125	0.0009
448.484	0.0011
448.842	0.0042
449.201	0.0054
449.559	0.0033
449.918	0.0002
450.276	0.0014
450.635	0.0026
450.993	-0.0007
451.352	-0.0021
451.71	-0.0044
452.068	0.0001
452.426	0.0026
452.785	0.0044
453.143	0.0047
453.501	0.0032
453.859	0.0036
454.217	0.0018
454.575	0.0009
454.933	-0.0005
455.291	0.0001
455.649	-0.0041
456.006	-0.0033
456.364	-0.0009
456.722	0.0012
457.079	0.0017
457.437	-0.0006
457.795	0.0031
458.152	0.004
458.51	0.0022
458.867	-0.0001
459.225	0.0002
459.582	0.0041
459.939	0.0047
460.297	0.0016
460.654	-0.0003
461.011	0.0001
461.368	0.0032
461.725	0.0025
462.082	0.003
462.44	0.004
462.797	0.0042
463.153	0.0051
463.51	0.004
463.867	0.0063
464.224	0.0014
464.581	-0.0032
464.938	-0.005
465.294	0.0007
465.651	0.0035
466.008	0.0029
466.364	-0.0005
466.721	0.0011
467.077	0.0022
467.434	0.0043
467.79	0.0054
468.146	0.0055
468.503	0.0089
468.859	0.0014
469.215	-0.0048
469.571	-0.011
469.927	-0.0064
470.284	-0.0025
470.64	0.0047
470.996	0.0053
471.352	0.0076
471.707	0.001
472.063	0.0019
472.419	0.0008
472.775	0.0007
473.131	0.0041
473.486	0.0045
473.842	0.0068
474.198	0.003
474.553	0.0027
474.909	0.0026
475.264	0.0043
475.62	0.0056
475.975	0.0052
476.331	0.0054
476.686	0.0049
477.041	0.005
477.396	0.0051
477.752	0.0069
478.107	0.0068
478.462	0.0036
478.817	0.0026
479.172	0.0044
479.527	0.0063
479.882	0.0043
480.237	0.0002
480.591	0.0009
480.946	0.0009
481.301	0.003
481.656	-0.0013
482.01	-0.0013
482.365	-0.0024
482.72	0.0013
483.074	0.0039
483.429	0.0033
483.783	-0.0002
484.137	0.002
484.492	0.0018
484.846	0.0036
485.2	-0.0047
485.555	-0.0049
485.909	-0.0033
486.263	0.0014
486.617	0.0011
486.971	0.0031
487.325	0.0057
487.679	0.009
488.033	0.0016
488.387	0.0073
488.741	0.0089
489.094	0.004
489.448	-0.0046
489.802	-0.0007
490.156	0.0079
490.509	0.0019
490.863	-0.0079
491.216	-0.0071
491.57	-0.0034
491.923	-0.0007
492.277	-0.0033
492.63	-0.0024
492.983	-0.003
493.337	-0.0035
493.69	-0.0005
494.043	0.0009
494.396	0.0018
494.749	-0.0002
495.102	-0.0011
495.455	-0.0003
495.808	-0.0022
496.161	0.001
496.514	0.0003
496.867	0.0019
497.22	0.0001
497.572	-0.0007
497.925	0.0008
498.278	-0.0028
498.63	0.003
498.983	0.0034
499.335	0.0043
499.688	-0.0048
500.04	-0.0082
500.393	-0.0086
500.745	-0.0042
501.097	-0.0024
501.449	-0.003
501.802	-0.0036
502.154	-0.0004
502.506	-0.0013
502.858	0.0005
503.21	-0.0033
503.562	-0.0015
503.914	0.001
504.266	0.0039
504.618	0.0003
504.969	-0.0005
505.321	-0.0063
505.673	-0.0042
506.025	-0.0055
506.376	-0.0012
506.728	-0.0035
507.079	-0.0044
507.431	-0.005
507.782	-0.0005
508.134	0.0007
508.485	-0.0017
508.836	-0.006
509.188	-0.0056
509.539	-0.0012
509.89	-0.0017
510.241	-0.0053
510.592	-0.0035
510.943	-0.0042
511.294	-0.0037
511.645	-0.0101
511.996	-0.0071
512.347	-0.0036
512.698	0.0016
513.049	0.0029
513.399	0.0024
513.75	-0.0011
514.101	0.0017
514.451	0.0017
514.802	0.0022
515.152	-0.0019
515.503	-0.002
515.853	-0.0041
516.203	-0.0052
516.554	-0.0068
516.904	-0.0038
517.254	-0.0026
517.604	-0.0033
517.955	-0.0066
518.305	-0.004
518.655	-0.0018
519.005	0.0032
519.355	0.0075
519.705	0.0054
520.055	0.0047
520.404	-0.0002
520.754	0.0036
521.104	0.0018
521.454	0.0019
521.803	0
522.153	-0.0028
522.502	-0.0064
522.852	-0.0103
523.201	-0.0073
523.551	-0.005
523.9	0.0005
524.249	0.0026
524.599	0.0012
524.948	-0.0019
525.297	-0.0034
525.646	-0.0031
525.995	-0.0034
526.344	-0.0057
526.694	-0.0034
527.042	-0.005
527.391	-0.006
527.74	-0.0056
528.089	-0.0034
528.438	0.0012
528.787	0.0009
529.135	0.0012
529.484	0.0031
529.833	0.0025
530.181	0.0013
530.53	-0.003
530.878	-0.0052
531.227	0.0002
531.575	0.0054
531.923	0.0037
532.271	-0.001
532.62	-0.0032
532.968	-0.0028
533.316	-0.003
533.664	-0.0031
534.012	0
534.36	0.0039
534.708	-0.0017
535.056	-0.0029
535.404	-0.0081
535.752	-0.005
536.1	-0.0048
536.447	-0.0043
536.795	-0.0022
537.143	-0.0006
537.49	-0.0009
537.838	-0.0038
538.185	-0.0075
538.533	-0.0071
538.88	-0.006
539.228	-0.0058
539.575	-0.0033
539.922	-0.005
540.269	0.0036
540.617	0.0016
540.964	0.0011
541.311	-0.0035
541.658	-0.0005
542.005	0.0024
542.352	0.0004
542.699	-0.0035
543.045	-0.008
543.392	-0.0065
543.739	-0.0093
544.086	-0.0087
544.432	-0.0106
544.779	-0.0048
545.126	-0.0041
545.472	-0.004
545.819	-0.0075
546.165	-0.0069
546.512	-0.0045
546.858	0.0028
547.204	0.0025
547.55	0.0013
547.897	-0.0038
548.243	-0.0085
548.589	-0.0066
548.935	-0.0078
549.281	-0.0026
549.627	-0.006
549.973	-0.0028
550.319	-0.0012
550.665	0.0027
551.01	0.0001
551.356	-0.005
551.702	-0.0096
552.048	-0.0179
552.393	-0.0151
552.739	-0.01
553.084	0.0014
553.43	-0.0005
553.775	-0.006
554.12	-0.0089
554.466	-0.0005
554.811	0.0024
555.156	0.0015
555.502	-0.0006
555.847	-0.0036
556.192	-0.0041
556.537	-0.0083
556.882	-0.0064
557.227	-0.0124
557.572	-0.0074
557.917	-0.0001
558.261	-0.0002
558.606	-0.0071
558.951	-0.0135
559.295	-0.0131
559.64	-0.0073
559.985	-0.0076
560.329	-0.0027
560.674	-0.0059
561.018	-0.0097
561.363	-0.0094
561.707	-0.0085
562.051	-0.0045
562.395	0.0028
562.74	0.0034
563.084	0.0049
563.428	0.0029
563.772	0.0037
564.116	-0.0002
564.46	-0.0047
564.804	-0.0018
565.148	-0.0084
565.492	-0.0047
565.835	-0.0017
566.179	0.0063
566.523	-0.003
566.866	-0.0121
567.21	-0.0109
567.554	-0.0026
567.897	0.001
568.24	-0.007
568.584	-0.0114
568.927	-0.0105
569.271	-0.0088
569.614	-0.0083
569.957	-0.0067
570.3	-0.0009
570.643	0.0011
570.986	-0.0024
571.329	0.0011
571.672	0.0033
572.015	0.0005
572.358	-0.0008
572.701	0.0038
573.044	0.0011
573.387	-0.0012
573.729	-0.0004
574.072	0.005
574.414	0.0063
574.757	0.007
575.099	-0.0097
575.442	-0.0173
575.784	-0.0057
576.127	0.0089
576.469	0.0085
576.811	-0.0049
577.153	-0.0022
577.496	0.0004
577.838	0.0021
578.18	-0.0155
578.522	-0.0193
578.864	-0.0249
579.206	0.0035
579.548	0.0056
579.889	-0.0063
580.231	0.0027
580.573	0.0168
580.915	0.0129
581.256	-0.0141
581.598	-0.0334
581.939	-0.0358
582.281	-0.0032
582.622	-0.0065
582.964	-0.0003
583.305	-0.0159
583.646	-0.004
583.988	0.0386
584.329	0.0257
584.67	0.0073
585.011	-0.0263
585.352	-0.0374
585.693	-0.02
586.034	-0.0276
586.375	-0.0222
586.716	-0.0186
587.057	-0.0045
587.398	0.0136
587.738	0.0248
588.079	0.0097
588.42	0.0025
588.76	-0.0227
589.101	-0.0182
589.441	-0.024
589.782	-0.0097
590.122	0.0027
590.463	0.0054
590.803	-0.0059
591.143	-0.0065
591.483	-0.0153
591.823	-0.0192
592.164	-0.0255
592.504	-0.0093
592.844	-0.0032
593.184	-0.0066
593.523	-0.0177
593.863	-0.0133
594.203	-0.0059
594.543	0.0035
594.883	-0.0059
595.222	0.0014
595.562	0.0198
595.901	0.0172
596.241	0.0037
596.58	-0.0179
596.92	-0.0236
597.259	-0.0273
597.599	-0.0145
597.938	0.0054
598.277	0.0072
598.616	-0.0111
598.955	-0.0195
599.295	-0.0155
599.634	0.0022
599.973	0.0082
600.312	0.013
600.65	-0.0027
600.989	-0.0053
601.328	0
601.667	0.0261
602.005	0.0073
602.344	-0.0041
602.683	-0.0081
603.021	0.0002
603.36	-0.0087
603.698	-0.0224
604.037	-0.0229
604.375	-0.0174
604.713	-0.02
605.052	-0.0153
605.39	-0.0139
605.728	-0.013
606.066	0.0096
606.404	0.0115
606.742	0.0072
607.08	-0.0061
607.418	-0.0179
607.756	-0.0096
608.094	-0.0047
608.431	0.0025
608.769	0.0105
609.107	-0.01
609.444	-0
609.782	-0.012
610.12	0.0044
610.457	-0.0037
610.794	-0.0198
611.132	-0.0214
611.469	-0.0221
611.806	-0.0162
612.144	-0.0233
612.481	-0.0127
612.818	0.0076
613.155	-0.0018
613.492	-0.0092
613.829	-0.0134
614.166	0
614.503	-0.0011
614.84	-0.0096
615.176	-0.0081
615.513	-0.0032
615.85	-0.0001
616.187	0.0023
616.523	-0.0084
616.86	-0.0113
617.196	-0.0044
617.533	0.017
617.869	0.0087
618.205	-0.0042
618.542	-0.0237
618.878	-0.0282
619.214	-0.0163
619.55	-0.0124
619.886	-0.0057
620.222	-0.0224
620.558	-0.0136
620.894	-0.0025
621.23	0.0005
621.566	-0.0076
621.902	-0.0126
622.238	-0.0185
622.573	0.0023
622.909	-0.0077
623.244	-0.0029
623.58	-0.0271
623.916	-0.0241
624.251	-0.0047
624.586	0.0181
624.922	0.0185
625.257	-0.0086
625.592	-0.0213
625.927	-0.018
626.263	-0.013
626.598	-0.012
626.933	-0.0096
627.268	-0.002
627.603	-0.0085
627.938	-0.018
628.272	-0.0127
628.607	-0.0121
628.942	-0.0065
629.277	-0.0125
629.611	-0.0002
629.946	0.0107
630.281	0.0054
630.615	0.0004
630.949	-0.0185
631.284	-0.0137
631.618	-0.0058
631.953	0.0094
632.287	0.0076
632.621	-0.0033
632.955	-0.0127
633.289	-0.0142
633.623	-0.0133
633.957	-0.0084
634.291	-0.0108
634.625	-0.0061
634.959	-0.0127
635.293	-0.0018
635.627	-0.0006
635.96	0.0043
636.294	-0.007
636.627	-0.0102
636.961	-0.0053
637.294	-0.0027
637.628	-0.0091
637.961	-0.0137
638.295	-0.0124
638.628	-0.0061
638.961	-0.0049
639.294	-0.0032
639.628	-0.012
639.961	-0.0198
640.294	-0.0221
640.627	-0.0139
640.96	-0.0053
641.293	-0.0018
641.625	-0.0042
641.958	-0.0094
642.291	-0.015
642.624	-0.0103
642.956	-0.008
643.289	-0.0004
643.621	-0.0034
643.954	-0.0041
644.286	-0.0082
644.619	-0.0111
644.951	-0.011
645.283	-0.0146
645.616	-0.0097
645.948	-0.0095
646.28	-0.004
646.612	-0.0079
646.944	-0.0083
647.276	-0.0141
647.608	-0.0097
647.94	-0.0071
648.272	-0.0055
648.603	-0.0108
648.935	-0.0137
649.267	-0.0136
649.598	-0.0104
649.93	-0.0119
650.261	-0.0086
650.593	-0.0026
650.924	0.0086
651.256	0.0063
651.587	-0.001
651.918	-0.0087
652.25	-0.0101
652.581	-0.0112
652.912	-0.0151
653.243	-0.0141
653.574	-0.0115
653.905	-0.0075
654.236	-0.0107
654.567	-0.0107
654.897	-0.0121
655.228	-0.0126
655.559	-0.0075
655.89	-0.0038
656.22	-0.0057
656.551	-0.014
656.881	-0.0176
657.212	-0.013
657.542	-0.0062
657.872	-0.0006
658.203	0.0118
658.533	0.139
658.863	0.0828
659.193	0.0143
659.523	-0.0508
659.853	-0.1222
660.183	-0.0713
660.513	-0.0361
660.843	-0.0177
661.173	-0.0082
661.503	-0.0079
661.833	-0.0086
662.162	-0.0143
662.492	-0.0168
662.822	-0.0162
663.151	-0.0142
663.481	-0.0113
663.81	-0.0098
664.139	-0.0028
664.469	-0.0022
664.798	-0.0036
665.127	-0.0057
665.456	-0.0053
665.785	-0.0038
666.114	-0.0063
666.443	-0.0027
666.772	-0.0009
667.101	0.003
667.43	0.0009
667.759	0.0005
668.088	-0.0012
668.416	-0.0081
668.745	-0.0118
669.074	-0.0165
669.402	-0.0081
669.731	-0.0058
670.059	-0.0013
670.388	-0.0078
670.716	-0.0081
671.044	-0.0091
671.372	-0.006
671.701	-0.0065
672.029	0.0009
672.357	0.0047
672.685	0.0044
673.013	-0.0014
673.341	-0.0117
673.669	-0.0131
673.996	-0.0137
674.324	0.0085
674.652	0.0067
674.98	0.0028
675.307	-0.0098
675.635	-0.0125
675.962	-0.0089
676.29	-0.012
676.617	-0.0089
676.945	-0.0095
677.272	-0.0108
677.599	-0.0094
677.926	-0.0089
678.253	-0.0043
678.581	-0.0105
678.908	-0.0106
679.235	-0.0048
679.561	-0.0054
679.888	-0.0117
680.215	-0.0159
680.542	0.0039
680.869	0.0049
681.195	-0.0032
681.522	-0.0151
681.849	-0.0118
682.175	0.0014
682.502	0.0062
682.828	0.0072
683.154	-0.0031
683.481	-0.0098
683.807	-0.0154
684.133	-0.0001
684.459	0.0026
684.785	0.0084
685.111	-0.0099
685.437	-0.0129
685.763	-0.021
686.089	-0.0078
686.415	0.0021
686.741	0.0041
687.067	0.0035
687.392	-0.0012
687.718	0.0038
688.043	0.0061
688.369	0.0042
688.694	-0.0024
689.02	-0.0121
689.345	-0.0171
689.67	-0.0117
689.996	-0.0095
690.321	-0.0042
690.646	-0.0088
690.971	-0.0048
691.296	-0.006
691.621	-0.0037
691.946	-0.0003
692.271	0.0058
692.596	0.0019
692.921	-0.009
693.245	-0.0186
693.57	-0.0129
693.895	0.0013
694.219	0.0058
694.544	-0.0029
694.868	-0.0145
695.193	-0.0152
695.517	-0.0069
695.841	-0.0025
696.166	-0.002
696.49	-0.0067
696.814	-0.0131
697.138	-0.0129
697.462	-0.0086
697.786	-0.0012
698.11	0.0054
698.434	-0.0013
698.758	-0.011
699.081	-0.0241
699.405	-0.0145
699.729	0.0157
700.052	0.0148
700.376	0.0007
700.7	-0.0206
701.023	-0.0253
701.346	-0.0156
701.67	-0.0108
701.993	-0.0074
702.316	-0.0069
702.639	-0.006
702.963	-0.0081
703.286	-0.0123
703.609	-0.0096
703.932	-0.0109
704.255	-0.0108
704.578	-0.0104
704.9	-0.002
705.223	0.0039
705.546	0.0033
705.868	-0.0073
706.191	-0.0164
706.514	-0.0216
706.836	-0.0172
707.159	-0.0074
707.481	-0.0076
707.803	-0.0067
708.126	-0.011
708.448	-0.0102
708.77	-0.0034
709.092	-0.001
709.414	0.0084
709.736	0.0068
710.058	0.0037
710.38	-0.0068
710.702	-0.0135
711.024	-0.0175
711.345	-0.0179
711.667	-0.0171
711.989	-0.0121
712.31	-0.0099
712.632	-0.0059
712.953	-0.006
713.275	-0.0021
713.596	0.0012
713.917	-0.0034
714.239	-0.0096
714.56	-0.0146
714.881	-0.0099
715.202	-0.0072
715.523	0.005
715.844	0.0011
716.165	0.0049
716.486	-0.006
716.807	-0.0057
717.128	-0.0074
717.448	-0.0072
717.769	-0.0074
718.09	-0.0074
718.41	-0.0132
718.731	-0.0143
719.051	-0.0185
719.372	-0.015
719.692	-0.0063
720.012	-0.0006
720.332	-0.002
720.653	-0.0028
720.973	0.0032
721.293	-0.005
721.613	-0.0142
721.933	-0.0241
722.253	-0.0116
722.573	-0.014
722.892	-0.0167
723.212	-0.0145
723.532	-0.0031
723.851	0.0047
724.171	0
724.491	0.0023
724.81	-0.0052
725.129	-0.0064
725.449	-0.0114
725.768	-0.0059
726.087	-0.0046
726.407	-0.0072
726.726	-0.0133
727.045	-0.0162
727.364	-0.0119
727.683	-0.0078
728.002	-0.0016
728.321	-0.0047
728.64	-0.0092
728.958	-0.0093
729.277	-0.0098
729.596	-0.0055
729.914	-0.0083
730.233	-0.003
730.551	-0.0001
730.87	-0.0002
731.188	-0.0017
731.507	-0.0066
731.825	-0.0106
732.143	-0.0154
732.461	-0.0097
732.779	-0.0086
733.097	-0.0068
733.415	-0.0014
733.733	0.0086
734.051	-0.0007
734.369	-0.0075
734.687	-0.021
735.005	-0.016
735.322	-0.0161
735.64	-0.0045
735.957	-0.0037
736.275	-0.0089
736.592	-0.0077
736.91	-0.0059
737.227	-0.0002
737.544	-0.0144
737.862	-0.0119
738.179	-0.0093
738.496	0.0028
738.813	-0.0035
739.13	-0.0153
739.447	-0.0153
739.764	-0.0043
740.081	0.0022
740.398	-0.0067
740.714	-0.0139
741.031	-0.0134
741.348	-0.0049
741.664	0.005
741.981	0.0141
742.297	0.0021
742.614	-0.0145
742.93	-0.0301
743.246	-0.0238
743.563	-0.0137
743.879	-0.0058
744.195	-0.0089
744.511	-0.0081
744.827	-0.0116
745.143	-0.0007
745.459	0.0042
745.775	0.0016
746.091	-0.0078
746.406	-0.0157
746.722	-0.016
747.038	-0.0128
747.353	-0.0084
747.669	-0.0029
747.984	-0.0109
748.3	-0.0119
748.615	-0.0137
748.93	-0.0017
749.246	-0.008
749.561	-0.0055
749.876	-0.008
750.191	-0.0051
750.506	-0.009
750.821	-0.0103
751.136	-0.0092
751.451	-0.0058
751.766	-0.006
752.08	-0.0001
752.395	0.0009
752.71	0.0016
753.024	-0.001
753.339	-0.0085
753.653	-0.0119
753.968	-0.0088
754.282	0.0021
754.596	0.0075
754.911	0.0027
755.225	0.0028
755.539	-0.0043
755.853	-0.0057
756.167	-0.007
756.481	-0.0029
756.795	-0.0043
757.109	-0.0093
757.423	-0.0088
757.736	-0.0077
758.05	-0.0053
758.364	-0.0032
758.677	-0.0046
758.991	-0.0066
759.304	-0.0053
759.618	0.0024
759.931	0.0006
760.244	0.0063
760.558	-0.0047
760.871	-0.0078
761.184	-0.0265
761.497	-0.0284
761.81	-0.0231
762.123	-0.01
762.436	-0.0011
762.749	-0.0068
763.062	-0.0066
763.374	-0.0011
763.687	-0.001
764	-0.001
764.312	-0.0188
764.625	-0.0178
764.937	-0.0222
765.25	-0.0103
765.562	-0.0008
765.874	-0.0056
766.186	-0.0065
766.499	-0.016
766.811	-0.0084
767.123	0.0004
767.435	0.0036
767.747	0.0012
768.059	-0.0114
768.37	-0.015
768.682	-0.0207
768.994	-0.0227
769.306	-0.0207
769.617	-0.0147
769.929	-0.0086
770.24	-0.0106
770.552	-0.0012
770.863	0.0009
771.174	-0.0013
771.486	-0.0096
771.797	-0.0165
772.108	-0.0207
772.419	-0.0281
772.73	-0.0188
773.041	-0.0122
773.352	-0.0031
773.663	-0.0092
773.974	-0.0057
774.285	-0.0133
774.595	-0.0122
774.906	-0.0166
775.217	-0.0083
775.527	-0.0067
775.838	-0.0081
776.148	-0.0106
776.458	-0.012
776.769	-0.0113
777.079	-0.0141
777.389	-0.014
777.699	-0.011
778.009	-0.008
778.319	-0.0054
778.629	-0.0133
778.939	-0.0143
779.249	-0.0152
779.559	-0.008
779.869	-0.0075
780.178	-0.0068
780.488	-0.0102
780.798	-0.0179
781.107	-0.0179
781.417	-0.0111
781.726	-0.0052
782.035	-0.0062
782.345	-0.0128
782.654	-0.0103
782.963	-0.0065
783.272	0.0003
783.581	0.0057
783.89	0.008
784.199	-0.0006
784.508	-0.0098
784.817	-0.0187
785.126	-0.0156
785.434	-0.0085
785.743	-0.0096
786.052	-0.0035
786.36	-0.0119
786.669	-0.0114
786.977	-0.0143
787.285	-0.0118
787.594	-0.0105
787.902	-0.0108
788.21	-0.0104
788.518	-0.0028
788.826	-0.0049
789.135	-0.007
789.442	-0.0143
789.75	-0.0136
790.058	-0.0124
790.366	-0.0109
790.674	-0.0094
790.981	0.0038
791.289	0.0053
791.597	0.0036
791.904	-0.0098
792.212	-0.0133
792.519	-0.0175
792.826	-0.01
793.134	-0.009
793.441	-0.0057
793.748	-0.0075
794.055	-0.0022
794.362	-0.0018
794.669	-0.0097
794.976	-0.0102
795.283	-0.014
795.59	-0.0017
795.897	-0.0122
796.203	-0.0152
796.51	-0.004
796.817	0.0103
797.123	0.0037
797.43	-0.0113
797.736	-0.0192
798.042	-0.0171
798.349	-0.0203
798.655	-0.0277
798.961	-0.0177
799.267	-0.0107
799.573	-0.0066
799.879	-0.0034
800.185	-0.0017
800.491	-0.004
800.797	-0.014
801.103	-0.0144
801.408	-0.0104
801.714	-0.0043
802.02	-0.008
802.325	-0.0036
802.631	-0.0069
802.936	-0.0039
803.242	-0.0082
803.547	-0.0085
803.852	-0.0073
804.157	-0.0066
804.462	-0.005
804.768	-0.0104
805.073	-0.0107
805.378	-0.0085
805.682	-0.011
805.987	-0.0071
806.292	-0.0098
806.597	-0.0053
806.902	-0.0074
807.206	-0.0177
807.511	-0.0176
807.815	-0.0243
808.12	-0.007
808.424	-0.0043
808.728	0.0067
809.033	0.0073
809.337	-0.0055
809.641	-0.0163
809.945	-0.0172
810.249	-0.0024
810.553	-0.0016
810.857	-0.006
811.161	-0.0144
811.465	-0.0117
811.768	-0.0143
812.072	-0.0131
812.376	-0.009
812.679	-0.003
812.983	-0.0024
813.286	-0.0009
813.59	0.0002
813.893	0.001
814.196	-0.0066
814.499	-0.0102
814.803	-0.0103
815.106	-0.0113
815.409	-0.0252
815.712	-0.0263
816.015	-0.0191
816.318	-0.0015
816.62	-0.0015
816.923	-0.0125
817.226	-0.025
817.528	-0.0224
817.831	-0.0111
818.133	-0.0098
818.436	-0.0126
818.738	-0.0183
819.041	-0.0066
819.343	-0.0063
819.645	0.0021
819.947	0.0025
820.249	0.0003
820.551	-0.0062
820.853	-0.0148
821.155	-0.0103
821.457	-0.0098
821.759	-0.0073
822.061	-0.0061
822.362	-0.0039
822.664	-0.0016
822.966	0.0037
823.267	0.0092
823.569	0.0077
823.87	-0.0095
824.171	-0.0218
824.473	-0.0262
824.774	-0.0159
825.075	-0.013
825.376	-0.0042
825.677	0.0024
825.978	0.0074
826.279	0.001
826.58	-0.0142
826.881	-0.0149
827.181	-0.0213
827.482	-0.0134
827.783	-0.0128
828.083	0.0073
828.384	0.0098
828.684	0.0044
828.985	-0
829.285	0.0062
829.585	0.0061
829.885	0.002
830.185	-0.0042
830.486	0.0011
830.786	-0.0137
831.086	-0.0195
831.385	-0.0316
831.685	-0.0154
831.985	-0.0104
832.285	-0.0066
832.585	-0.0088
832.884	-0.0163
833.184	-0.0218
833.483	-0.0245
833.783	-0.0216
834.082	-0.0098
834.381	-0.0137
834.681	-0.0094
834.98	-0.0139
835.279	-0.0173
835.578	-0.0082
835.877	-0.0091
836.176	-0.0039
836.475	-0.006
836.774	-0.0032
837.072	0.0008
837.371	-0.0032
837.67	-0.0048
837.968	-0.0073
838.267	-0.0107
838.565	-0.0177
838.864	-0.0149
839.162	-0.0117
839.46	-0.0064
839.759	-0.0174
840.057	-0.0184
840.355	-0.0034
840.653	0.0052
840.951	0.0027
841.249	-0.0188
841.547	-0.0293
841.845	-0.0293
842.142	-0.0189
842.44	-0.0067
842.738	0.0025
843.035	0.0145
843.333	0.0068
843.63	-0.0033
843.928	-0.0032
844.225	-0.0038
844.522	-0.0085
844.82	-0.0186
845.117	-0.0126
845.414	-0.0018
845.711	-0.0085
846.008	-0.0194
846.305	-0.0227
846.602	-0.0154
846.898	-0.0098
847.195	-0.0242
847.492	-0.0158
847.788	-0.0118
848.085	-0.0025
848.382	-0.0073
848.678	-0.002
848.974	-0.0079
849.271	-0.0083
849.567	-0.0113
849.863	-0.0074
850.159	-0.0181
850.455	-0.0117
850.751	-0.0021
851.047	-0.0046
851.343	-0.0081
851.639	-0.0097
851.935	0.0072
852.23	-0.0012
852.526	-0.0048
852.822	-0.0035
853.117	0.0036
853.413	0.0062
853.708	0.0035
854.003	0.0133
854.299	0.0074
854.594	0.0058
854.889	0.0048
855.184	0.031
855.479	0.0308
855.774	0.0223
856.069	0.0006
856.364	0.0113
856.659	0.028
856.954	0.0279
857.248	0.0084
857.543	-0.025
857.837	-0.0394
858.132	-0.0301
858.426	-0.0269
858.721	-0.0219
859.015	-0.0232
859.309	-0.0088
859.604	-0.0077
859.898	-0.0272
860.192	-0.0356
860.486	-0.0306
860.78	-0.0296
861.074	-0.0277
861.367	-0.0446
861.661	-0.0117
861.955	-0.0056
862.248	0.0171
862.542	-0.0113
862.836	-0.0276
863.129	-0.0258
863.422	-0.0238
863.716	-0.001
864.009	-0.0175
864.302	-0.0098
864.595	-0.0125
864.889	0.0009
865.182	-0.0092
865.475	-0.0111
865.767	-0.026
866.06	-0.0172
866.353	-0.0367
866.646	-0.003
866.938	-0.0039
867.231	-0.0086
867.524	-0.0255
867.816	-0.0126
868.109	0.0013
868.401	-0.0124
868.693	0.0001
868.985	0.0226
869.278	0.0381
869.57	0.0281
869.862	-0.0225
870.154	-0.0343
870.446	-0.0212
870.738	-0.0024
871.029	0.0192
871.321	-0.0166
871.613	-0.0116
871.904	-0.0403
872.196	-0.0226
872.487	-0.0449
872.779	-0.038
873.07	-0.0276
873.362	-0.0009
873.653	-0.0052
873.944	-0.0017
874.235	-0.0166
874.526	0.0201
874.817	0.0225
875.108	0.0223
875.399	0.0166
875.69	0.0005
875.981	0.0149
876.271	0.0125
876.562	0.0183
876.853	0.0171
877.143	-0.0281
877.434	-0.024
877.724	-0.0169
878.014	0.0176
878.305	0.0155
878.595	0.0246
878.885	0.0082
879.175	0.0186
879.465	0.0259
879.755	0.0384
880.045	0.0315
880.335	0.02
880.624	0.0187
880.914	0.0187
