Data from 29SS04LU_072017_1a_Absorbance_17-04-41-388.txt Node
Date: Fri Jul 28 17:04:41 MDT 2017
User: Tank Lab
Spectrometer: FLMS01220
Trigger mode: 0
Integration Time (sec): 1.000000E-1
Scans to average: 10
Electric dark correction enabled: true
Nonlinearity correction enabled: false
Boxcar width: 1
XAxis mode: Wavelengths
Number of Pixels in Spectrum: 2048
>>>>>Begin Spectral Data<<<<<
179.47	-0
179.856	-0
180.241	-0
180.626	-0
181.011	-0.0002
181.396	-0.1453
181.781	-0.1163
182.166	-0
182.551	0.4302
182.936	0.8425
183.321	0.5745
183.706	1.0564
184.091	0.1638
184.476	-0
184.86	-0
185.245	-0
185.63	-0
186.015	-0
186.399	1.1124
186.784	0.2552
187.169	0.1156
187.553	0.9275
187.938	-0
188.322	-0.0852
188.707	-0.0179
189.091	0.0418
189.475	0.0748
189.86	0.067
190.244	0.079
190.629	0.0962
191.013	0.1602
191.397	0.2107
191.781	0.2546
192.165	0.2683
192.55	0.278
192.934	0.2806
193.318	0.3026
193.702	0.3198
194.086	0.3261
194.47	0.314
194.854	0.3104
195.238	0.3055
195.622	0.3158
196.006	0.312
196.389	0.3065
196.773	0.2999
197.157	0.2979
197.541	0.3065
197.924	0.304
198.308	0.3011
198.692	0.2917
199.075	0.2837
199.459	0.2804
199.843	0.2789
200.226	0.2787
200.61	0.2757
200.993	0.2714
201.376	0.2688
201.76	0.2619
202.143	0.2619
202.527	0.2556
202.91	0.2546
203.293	0.2442
203.676	0.2404
204.059	0.2375
204.443	0.2405
204.826	0.247
205.209	0.2496
205.592	0.2492
205.975	0.2419
206.358	0.2386
206.741	0.2393
207.124	0.2418
207.507	0.24
207.89	0.2343
208.273	0.2321
208.655	0.2314
209.038	0.2315
209.421	0.2286
209.804	0.2258
210.186	0.224
210.569	0.2213
210.951	0.2234
211.334	0.2247
211.717	0.2229
212.099	0.2156
212.482	0.2115
212.864	0.2105
213.246	0.2126
213.629	0.2117
214.011	0.2085
214.393	0.2055
214.776	0.1982
215.158	0.1961
215.54	0.1923
215.922	0.1928
216.305	0.1908
216.687	0.1893
217.069	0.184
217.451	0.1807
217.833	0.1763
218.215	0.1763
218.597	0.1741
218.979	0.1695
219.361	0.1627
219.742	0.1582
220.124	0.1571
220.506	0.1548
220.888	0.1511
221.27	0.1484
221.651	0.1485
222.033	0.1458
222.415	0.1415
222.796	0.1375
223.178	0.1349
223.559	0.1321
223.941	0.1263
224.322	0.1231
224.704	0.1192
225.085	0.1174
225.466	0.1148
225.848	0.1141
226.229	0.1114
226.61	0.1089
226.992	0.1053
227.373	0.1022
227.754	0.0996
228.135	0.0973
228.516	0.0974
228.897	0.0953
229.278	0.0941
229.659	0.0903
230.04	0.0883
230.421	0.0863
230.802	0.0842
231.183	0.0837
231.564	0.083
231.944	0.0821
232.325	0.0788
232.706	0.0763
233.087	0.0763
233.467	0.076
233.848	0.0758
234.229	0.0745
234.609	0.0738
234.99	0.0702
235.37	0.068
235.751	0.0661
236.131	0.065
236.511	0.065
236.892	0.0636
237.272	0.0634
237.652	0.0629
238.033	0.0629
238.413	0.0637
238.793	0.062
239.173	0.061
239.553	0.0606
239.933	0.0603
240.313	0.059
240.694	0.0559
241.074	0.055
241.453	0.0548
241.833	0.0558
242.213	0.0554
242.593	0.0542
242.973	0.0555
243.353	0.0545
243.732	0.0555
244.112	0.0532
244.492	0.0536
244.872	0.0536
245.251	0.0542
245.631	0.0532
246.01	0.0519
246.39	0.0495
246.769	0.0501
247.149	0.0504
247.528	0.0518
247.908	0.0513
248.287	0.0509
248.666	0.0495
249.045	0.0501
249.425	0.0492
249.804	0.0488
250.183	0.048
250.562	0.0473
250.941	0.0485
251.32	0.0489
251.699	0.0496
252.078	0.0489
252.457	0.0476
252.836	0.0474
253.215	0.0483
253.594	0.0476
253.973	0.0477
254.352	0.0467
254.731	0.0466
255.109	0.0456
255.488	0.0453
255.867	0.0468
256.245	0.0454
256.624	0.0449
257.002	0.0435
257.381	0.0451
257.759	0.0451
258.138	0.0444
258.516	0.0444
258.895	0.0457
259.273	0.0451
259.651	0.0445
260.03	0.0428
260.408	0.0442
260.786	0.0443
261.164	0.0453
261.542	0.0447
261.921	0.0447
262.299	0.0448
262.677	0.0443
263.055	0.0442
263.433	0.0426
263.811	0.042
264.188	0.041
264.566	0.0411
264.944	0.0412
265.322	0.0416
265.7	0.0423
266.077	0.0424
266.455	0.0415
266.833	0.0404
267.21	0.0405
267.588	0.041
267.966	0.0414
268.343	0.0416
268.721	0.0419
269.098	0.0405
269.475	0.0408
269.853	0.0392
270.23	0.0406
270.607	0.0395
270.985	0.0414
271.362	0.0392
271.739	0.0399
272.116	0.0384
272.494	0.0389
272.871	0.038
273.248	0.0373
273.625	0.0367
274.002	0.0356
274.379	0.0351
274.756	0.0351
275.132	0.0352
275.509	0.0361
275.886	0.0362
276.263	0.0368
276.64	0.0356
277.016	0.0353
277.393	0.0348
277.77	0.0335
278.146	0.0347
278.523	0.0352
278.899	0.0359
279.276	0.0336
279.652	0.0315
280.029	0.0324
280.405	0.0325
280.782	0.0322
281.158	0.0323
281.534	0.0314
281.91	0.0323
282.287	0.0322
282.663	0.034
283.039	0.035
283.415	0.0333
283.791	0.0322
284.167	0.0311
284.543	0.0316
284.919	0.0313
285.295	0.0309
285.671	0.0297
286.047	0.0283
286.423	0.0275
286.799	0.0284
287.174	0.0295
287.55	0.0291
287.926	0.0285
288.301	0.0287
288.677	0.0289
289.053	0.0287
289.428	0.0276
289.804	0.0277
290.179	0.0286
290.555	0.0309
290.93	0.0295
291.305	0.0274
291.681	0.027
292.056	0.0291
292.431	0.0294
292.806	0.0275
293.182	0.0262
293.557	0.0269
293.932	0.0272
294.307	0.0274
294.682	0.0276
295.057	0.0278
295.432	0.0276
295.807	0.027
296.182	0.0269
296.557	0.0268
296.932	0.027
297.306	0.0261
297.681	0.0253
298.056	0.0256
298.43	0.0248
298.805	0.0238
299.18	0.0235
299.554	0.0238
299.929	0.0263
300.303	0.025
300.678	0.0241
301.052	0.023
301.427	0.0225
301.801	0.0237
302.175	0.023
302.55	0.0228
302.924	0.022
303.298	0.022
303.672	0.0244
304.046	0.0251
304.421	0.0257
304.795	0.0242
305.169	0.0239
305.543	0.0228
305.917	0.0218
306.291	0.022
306.664	0.0237
307.038	0.0234
307.412	0.0227
307.786	0.0206
308.16	0.0211
308.533	0.0206
308.907	0.0206
309.281	0.0219
309.654	0.0219
310.028	0.0229
310.401	0.0223
310.775	0.0217
311.148	0.0214
311.522	0.0199
311.895	0.02
312.268	0.0198
312.642	0.0203
313.015	0.0208
313.388	0.0205
313.761	0.0215
314.135	0.0225
314.508	0.0231
314.881	0.0216
315.254	0.0194
315.627	0.0183
316	0.0178
316.373	0.0183
316.746	0.019
317.118	0.0185
317.491	0.0191
317.864	0.0187
318.237	0.0194
318.61	0.0181
318.982	0.0164
319.355	0.0159
319.727	0.0166
320.1	0.0176
320.473	0.017
320.845	0.0177
321.218	0.0182
321.59	0.0189
321.962	0.0179
322.335	0.0163
322.707	0.0172
323.079	0.0163
323.452	0.0172
323.824	0.0168
324.196	0.0178
324.568	0.0169
324.94	0.0173
325.312	0.0186
325.684	0.0196
326.056	0.0178
326.428	0.0163
326.8	0.014
327.172	0.0149
327.544	0.0128
327.915	0.0127
328.287	0.0121
328.659	0.0142
329.031	0.0157
329.402	0.015
329.774	0.0131
330.145	0.0108
330.517	0.01
330.888	0.0106
331.26	0.0119
331.631	0.0121
332.003	0.0134
332.374	0.0134
332.745	0.0138
333.117	0.0126
333.488	0.0124
333.859	0.0129
334.23	0.013
334.601	0.0131
334.972	0.0146
335.343	0.0144
335.714	0.0148
336.085	0.0126
336.456	0.013
336.827	0.0127
337.198	0.0142
337.569	0.0131
337.94	0.0129
338.31	0.011
338.681	0.0103
339.052	0.0106
339.422	0.0109
339.793	0.0114
340.164	0.01
340.534	0.0115
340.905	0.0125
341.275	0.0122
341.645	0.011
342.016	0.0117
342.386	0.0132
342.756	0.014
343.127	0.0123
343.497	0.0113
343.867	0.0115
344.237	0.0125
344.607	0.0127
344.977	0.0118
345.347	0.0102
345.717	0.0089
346.087	0.0077
346.457	0.0102
346.827	0.0128
347.197	0.0136
347.567	0.011
347.936	0.0098
348.306	0.0111
348.676	0.0122
349.046	0.0127
349.415	0.0105
349.785	0.0101
350.154	0.0084
350.524	0.0095
350.893	0.0091
351.263	0.0098
351.632	0.0092
352.001	0.0095
352.371	0.0089
352.74	0.0095
353.109	0.0098
353.478	0.0104
353.847	0.0114
354.217	0.0117
354.586	0.0108
354.955	0.0096
355.324	0.0087
355.693	0.0105
356.062	0.0097
356.43	0.0098
356.799	0.0085
357.168	0.0082
357.537	0.0076
357.906	0.0084
358.274	0.0096
358.643	0.0101
359.011	0.008
359.38	0.0071
359.749	0.0056
360.117	0.006
360.486	0.0067
360.854	0.0076
361.222	0.0069
361.591	0.0066
361.959	0.006
362.327	0.0077
362.695	0.007
363.064	0.0085
363.432	0.0089
363.8	0.008
364.168	0.0063
364.536	0.007
364.904	0.0061
365.272	0.0075
365.64	0.006
366.008	0.0066
366.376	0.0062
366.743	0.0059
367.111	0.0072
367.479	0.0061
367.847	0.0062
368.214	0.0061
368.582	0.007
368.949	0.0087
369.317	0.0084
369.684	0.006
370.052	0.0037
370.419	0.0041
370.787	0.0069
371.154	0.0082
371.521	0.0075
371.889	0.0091
372.256	0.0069
372.623	0.0073
372.99	0.0046
373.357	0.0059
373.724	0.0061
374.091	0.0078
374.458	0.0069
374.825	0.0052
375.192	0.0036
375.559	0.0053
375.926	0.0065
376.293	0.0057
376.659	0.0053
377.026	0.0047
377.393	0.0061
377.759	0.0066
378.126	0.0072
378.492	0.0062
378.859	0.0057
379.225	0.0039
379.592	0.0046
379.958	0.0049
380.325	0.0071
380.691	0.0076
381.057	0.0073
381.423	0.0081
381.79	0.0057
382.156	0.0031
382.522	0.0004
382.888	0.0029
383.254	0.0051
383.62	0.0065
383.986	0.0053
384.352	0.0037
384.718	0.0035
385.084	0.0041
385.449	0.0047
385.815	0.0058
386.181	0.006
386.547	0.0083
386.912	0.0058
387.278	0.0055
387.643	0.0033
388.009	0.0052
388.374	0.004
388.74	0.0055
389.105	0.005
389.471	0.0056
389.836	0.0052
390.201	0.0065
390.566	0.0066
390.932	0.0068
391.297	0.0033
391.662	0.0032
392.027	0.0037
392.392	0.0054
392.757	0.0055
393.122	0.0039
393.487	0.0048
393.852	0.0069
394.217	0.0069
394.582	0.0078
394.946	0.0056
395.311	0.0056
395.676	0.004
396.04	0.0039
396.405	0.0043
396.77	0.0036
397.134	0.0027
397.499	0.0031
397.863	0.0033
398.227	0.0049
398.592	0.0036
398.956	0.004
399.32	0.0027
399.685	0.0035
400.049	0.004
400.413	0.0046
400.777	0.0046
401.141	0.0048
401.505	0.005
401.869	0.0048
402.233	0.0052
402.597	0.003
402.961	0.0033
403.325	0.0044
403.689	0.0059
404.053	0.0071
404.416	0.0056
404.78	0.0053
405.144	0.0041
405.507	0.0037
405.871	0.0038
406.234	0.0041
406.598	0.0019
406.961	0.0011
407.325	-0.0004
407.688	0
408.051	0.0009
408.415	0.0038
408.778	0.0041
409.141	0.0046
409.504	0.0037
409.867	0.0031
410.23	0.0034
410.593	0.003
410.956	0.0031
411.319	0.0033
411.682	0.0022
412.045	0.0039
412.408	0.0029
412.771	0.0047
413.134	0.0026
413.496	0.0019
413.859	0.0015
414.222	0.0044
414.584	0.0068
414.947	0.0064
415.309	0.0032
415.672	0.0036
416.034	0.0026
416.396	0.0027
416.759	0.0011
417.121	0.0018
417.483	0.0009
417.846	-0.0004
418.208	0.0003
418.57	0.0028
418.932	0.0024
419.294	0.0006
419.656	0.0013
420.018	0.0035
420.38	0.0038
420.742	0.0011
421.104	-0.0001
421.466	-0.0002
421.827	0.0003
422.189	0.0005
422.551	0.0016
422.912	0.0023
423.274	0.0044
423.636	0.0036
423.997	0.0056
424.359	0.0039
424.72	0.0048
425.081	0.004
425.443	0.0056
425.804	0.0055
426.165	0.0067
426.527	0.0039
426.888	0.0025
427.249	0.0022
427.61	0.0039
427.971	0.0036
428.332	0.0029
428.693	0.0009
429.054	0.0027
429.415	0.0027
429.776	0.0023
430.137	0.0006
430.498	0.0001
430.858	0.0027
431.219	0.0013
431.58	0.0018
431.94	0.0024
432.301	0.0031
432.661	0.0007
433.022	-0.0008
433.382	-0.0003
433.743	0.0023
434.103	0.0035
434.463	0.0041
434.824	0.0025
435.184	0.0026
435.544	0.004
435.904	0.0061
436.264	0.0062
436.624	0.0056
436.985	0.0033
437.345	0.0039
437.704	0.003
438.064	0.0047
438.424	0.0017
438.784	0.0004
439.144	-0.0002
439.504	0.0005
439.863	-0.0001
440.223	-0.0013
440.583	-0.001
440.942	0.0011
441.302	0.0024
441.661	0.0016
442.021	0.0028
442.38	0.0017
442.739	0.0008
443.099	-0.0026
443.458	-0.001
443.817	0.002
444.176	0.0046
444.536	0.0053
444.895	0.0048
445.254	0.0025
445.613	0.0009
445.972	0.0017
446.331	0.0021
446.69	0.0016
447.049	-0.0031
447.407	-0.0031
447.766	-0.0016
448.125	0.0033
448.484	0.004
448.842	0.0041
449.201	0.0032
449.559	0.0016
449.918	0.0005
450.276	0.0001
450.635	0.0003
450.993	0.0008
451.352	0
451.71	0.0017
452.068	-0.0016
452.426	-0.0001
452.785	0.001
453.143	0.0029
453.501	0.0019
453.859	-0.0027
454.217	-0.0004
454.575	-0.002
454.933	-0.0011
455.291	-0.0007
455.649	0.0003
456.006	0.0021
456.364	0.0014
456.722	0.0029
457.079	0.0037
457.437	0.0032
457.795	0.0035
458.152	0.0041
458.51	0.0052
458.867	0.003
459.225	0.0023
459.582	0.0005
459.939	0.0001
460.297	-0.0023
460.654	-0.0031
461.011	-0.0019
461.368	0.0023
461.725	0.0022
462.082	0.0013
462.44	-0.0011
462.797	0.0012
463.153	0.004
463.51	0.0047
463.867	0.0042
464.224	0.0037
464.581	0.0039
464.938	0.0047
465.294	0.0046
465.651	0.0053
466.008	0.0025
466.364	0.0019
466.721	-0.0008
467.077	-0.0022
467.434	-0.0028
467.79	0.0003
468.146	0.0038
468.503	0.0048
468.859	0.0013
469.215	-0.0023
469.571	-0.0047
469.927	-0.0017
470.284	0.0005
470.64	0.0033
470.996	0.0018
471.352	0.0016
471.707	-0.0016
472.063	0.0003
472.419	0.0002
472.775	0.0006
473.131	0.0002
473.486	-0.0016
473.842	0.0006
474.198	0.0008
474.553	0.0032
474.909	0.0052
475.264	0.004
475.62	0.0059
475.975	0.0018
476.331	0.0022
476.686	0.0013
477.041	0.0024
477.396	0.0024
477.752	0.0025
478.107	0.0023
478.462	-0.0005
478.817	-0.0005
479.172	0.0015
479.527	0.0025
479.882	0.0013
480.237	-0.0006
480.591	-0.0001
480.946	0.0023
481.301	0.0012
481.656	0.0031
482.01	-0.0001
482.365	0.0013
482.72	0.0005
483.074	0.0016
483.429	0.001
483.783	0.001
484.137	0.0012
484.492	0.0013
484.846	0.0012
485.2	0.0003
485.555	-0.0008
485.909	-0.0022
486.263	-0.0017
486.617	-0.0008
486.971	0
487.325	0.001
487.679	0.0029
488.033	0.0043
488.387	0.0065
488.741	0.0062
489.094	0.0012
489.448	-0.002
489.802	-0.0024
490.156	-0.0003
490.509	-0.0003
490.863	-0.002
491.216	-0.0018
491.57	-0.0008
491.923	-0.0004
492.277	0.0012
492.63	0.0014
492.983	0.0025
493.337	0.0027
493.69	0.0016
494.043	-0.0014
494.396	-0.0027
494.749	-0.0019
495.102	-0.0019
495.455	-0.0022
495.808	-0.0022
496.161	0.0008
496.514	0.0014
496.867	-0
497.22	0.0008
497.572	-0.0003
497.925	0.0027
498.278	0.0005
498.63	0.0032
498.983	0.0013
499.335	0.0006
499.688	-0.0009
500.04	-0.0029
500.393	-0.0037
500.745	-0.0037
501.097	-0.0023
501.449	0.0002
501.802	-0.0012
502.154	-0.0003
502.506	-0.0011
502.858	0.0001
503.21	-0.0018
503.562	-0.003
503.914	-0.0038
504.266	-0.0017
504.618	-0.0018
504.969	0.0011
505.321	0.0008
505.673	0.0027
506.025	0.0018
506.376	-0.0001
506.728	-0.0007
507.079	-0.0012
507.431	-0.0011
507.782	-0.001
508.134	-0.0011
508.485	0.0018
508.836	0.0028
509.188	0.002
509.539	0.0002
509.89	0.0005
510.241	0.0016
510.592	0.0019
510.943	-0.0007
511.294	-0
511.645	-0.0008
511.996	0.0014
512.347	-0.001
512.698	-0.0011
513.049	-0.0005
513.399	0.0021
513.75	0.0022
514.101	-0.0001
514.451	-0.0022
514.802	-0.0043
515.152	-0.0065
515.503	-0.0033
515.853	0.0005
516.203	0.0029
516.554	0.0005
516.904	-0.0008
517.254	0.0002
517.604	0.0008
517.955	0.0011
518.305	-0.0029
518.655	-0.0037
519.005	-0.0059
519.355	-0.0036
519.705	-0.0052
520.055	-0.0059
520.404	-0.0069
520.754	-0.0047
521.104	-0.0031
521.454	-0.0008
521.803	-0.0017
522.153	-0.0031
522.502	-0.0051
522.852	-0.0032
523.201	-0.0024
523.551	-0.0011
523.9	-0.0039
524.249	-0.0038
524.599	-0.0047
524.948	-0.0043
525.297	-0.0035
525.646	-0.0029
525.995	-0.0019
526.344	-0.0007
526.694	0.0003
527.042	-0.001
527.391	-0.0052
527.74	-0.0056
528.089	-0.0041
528.438	-0.0009
528.787	-0.0017
529.135	-0.0052
529.484	-0.0064
529.833	-0.0051
530.181	-0.0042
530.53	-0.004
530.878	-0.0066
531.227	-0.0047
531.575	-0.003
531.923	-0.0028
532.271	-0.005
532.62	-0.0037
532.968	-0.0029
533.316	-0.0014
533.664	-0.0022
534.012	0.0004
534.36	0.0038
534.708	0.0028
535.056	0.001
535.404	-0.001
535.752	0.002
536.1	0.0013
536.447	0.0002
536.795	-0.0041
537.143	-0.0038
537.49	-0.0034
537.838	-0.0027
538.185	-0.0038
538.533	-0.0019
538.88	-0.0013
539.228	0.001
539.575	-0.0006
539.922	-0.0001
540.269	0.0005
540.617	-0.0002
540.964	-0.0038
541.311	-0.0062
541.658	-0.0052
542.005	-0.0009
542.352	0.0006
542.699	-0.0002
543.045	-0.0023
543.392	-0.0021
543.739	-0.0017
544.086	-0.0032
544.432	-0.0049
544.779	-0.0058
545.126	-0.0026
545.472	-0.0018
545.819	-0.001
546.165	-0.0022
546.512	-0.0018
546.858	-0.0027
547.204	-0.0021
547.55	-0.0034
547.897	-0.0017
548.243	-0.0027
548.589	-0.0006
548.935	-0.0038
549.281	-0.0036
549.627	-0.0044
549.973	-0.0006
550.319	-0.0011
550.665	-0.0009
551.01	-0.0013
551.356	0.0007
551.702	0.0005
552.048	0.0012
552.393	-0.0003
552.739	-0.0026
553.084	-0.0044
553.43	-0.0028
553.775	-0.0023
554.12	-0.0016
554.466	-0.0059
554.811	-0.004
555.156	-0.0046
555.502	-0.0026
555.847	-0.0017
556.192	-0.0021
556.537	-0.0022
556.882	-0.0037
557.227	-0.0054
557.572	-0.0047
557.917	-0.0019
558.261	0.0008
558.606	0.0029
558.951	-0.0008
559.295	-0.0026
559.64	-0.0059
559.985	-0.0047
560.329	-0.0055
560.674	-0.0034
561.018	-0.0028
561.363	-0.0022
561.707	-0.0015
562.051	-0.0035
562.395	-0.0027
562.74	-0.0047
563.084	-0.0011
563.428	-0.0006
563.772	-0.0009
564.116	-0.003
564.46	-0.0045
564.804	-0.0056
565.148	-0.007
565.492	-0.0069
565.835	-0.0038
566.179	0
566.523	0.0004
566.866	-0.0011
567.21	-0.0032
567.554	-0.0032
567.897	-0.0005
568.24	-0.0007
568.584	0.0029
568.927	0.0018
569.271	0.0009
569.614	-0.0035
569.957	-0.0037
570.3	-0.0027
570.643	0.0001
570.986	-0.0039
571.329	-0.0008
571.672	-0.001
572.015	-0.0019
572.358	-0.0018
572.701	-0.0018
573.044	-0.0003
573.387	-0.0023
573.729	-0.0017
574.072	-0.0003
574.414	-0.0027
574.757	-0.0036
575.099	-0.0064
575.442	-0.0052
575.784	-0.0043
576.127	-0.0019
576.469	-0.0026
576.811	-0.0026
577.153	-0.0029
577.496	-0.0044
577.838	-0.0041
578.18	-0.0061
578.522	-0.007
578.864	-0.0088
579.206	-0.0063
579.548	-0.0052
579.889	-0.0092
580.231	-0.007
580.573	-0.005
580.915	-0.0042
581.256	-0.0068
581.598	-0.0083
581.939	-0.0077
582.281	-0.0057
582.622	-0.0049
582.964	-0.0034
583.305	-0.0044
583.646	-0.0041
583.988	-0.0007
584.329	-0.0021
584.67	-0.0048
585.011	-0.0087
585.352	-0.0097
585.693	-0.0069
586.034	-0.0062
586.375	-0.0052
586.716	-0.0045
587.057	-0.0036
587.398	-0.0067
587.738	-0.0038
588.079	-0.0043
588.42	-0.0018
588.76	-0.0052
589.101	-0.0045
589.441	-0.004
589.782	-0.0025
590.122	-0.0024
590.463	-0.0044
590.803	-0.0081
591.143	-0.0062
591.483	-0.0076
591.823	-0.0044
592.164	-0.0078
592.504	-0.0067
592.844	-0.0072
593.184	-0.0068
593.523	-0.0051
593.863	-0.0031
594.203	-0.0048
594.543	-0.0042
594.883	-0.005
595.222	-0.0033
595.562	-0.0011
595.901	-0.0028
596.241	-0.0038
596.58	-0.0059
596.92	-0.0056
597.259	-0.0054
597.599	-0.0038
597.938	-0.004
598.277	-0.0021
598.616	-0.0049
598.955	-0.0049
599.295	-0.007
599.634	-0.0047
599.973	-0.0044
600.312	-0.0025
600.65	-0.0032
600.989	-0.0016
601.328	0.0015
601.667	0.0021
602.005	-0.0023
602.344	-0.0056
602.683	-0.0068
603.021	-0.0065
603.36	-0.0082
603.698	-0.009
604.037	-0.0061
604.375	-0.0043
604.713	-0.0041
605.052	-0.0045
605.39	-0.0045
605.728	-0.0043
606.066	-0.0029
606.404	-0.0065
606.742	-0.0063
607.08	-0.0055
607.418	-0.0025
607.756	-0.0015
608.094	-0.0036
608.431	-0.0022
608.769	-0.0039
609.107	-0.007
609.444	-0.0067
609.782	-0.0072
610.12	-0.0027
610.457	-0.0058
610.794	-0.0087
611.132	-0.0101
611.469	-0.0103
611.806	-0.0066
612.144	-0.0066
612.481	-0.0034
612.818	-0.0006
613.155	-0.0031
613.492	-0.0015
613.829	-0.0032
614.166	-0.0008
614.503	-0.0021
614.84	-0.0036
615.176	-0.0051
615.513	-0.0055
615.85	-0.0072
616.187	-0.0049
616.523	-0.0055
616.86	-0.0072
617.196	-0.0089
617.533	-0.0064
617.869	-0.0025
618.205	-0.0032
618.542	-0.0055
618.878	-0.0077
619.214	-0.0061
619.55	-0.0073
619.886	-0.0046
620.222	-0.0103
620.558	-0.0088
620.894	-0.0077
621.23	-0.0061
621.566	-0.0088
621.902	-0.009
622.238	-0.0097
622.573	-0.0025
622.909	-0.0067
623.244	-0.0025
623.58	-0.0091
623.916	-0.0086
624.251	-0.0069
624.586	-0.0043
624.922	-0.0044
625.257	-0.005
625.592	-0.0046
625.927	0.0006
626.263	-0.0024
626.598	-0.003
626.933	-0.0031
627.268	-0.0001
627.603	-0.0003
627.938	-0.0068
628.272	-0.0076
628.607	-0.0083
628.942	-0.0044
629.277	-0.0043
629.611	-0.005
629.946	-0.0015
630.281	-0.0019
630.615	0.0022
630.949	0.0003
631.284	-0.0026
631.618	-0.0026
631.953	-0.0013
632.287	0.0018
632.621	0.0004
632.955	-0.0016
633.289	0.0006
633.623	-0.0008
633.957	0.002
634.291	-0.0027
634.625	-0.0013
634.959	-0.0076
635.293	-0.0097
635.627	-0.0133
635.96	-0.0102
636.294	-0.0108
636.627	-0.0088
636.961	-0.0101
637.294	-0.0075
637.628	-0.0084
637.961	-0.0063
638.295	-0.0065
638.628	-0.0068
638.961	-0.0067
639.294	-0.0002
639.628	0.0043
639.961	0.0034
640.294	0.0008
640.627	-0.0031
640.96	-0.0046
641.293	-0.0065
641.625	-0.0071
641.958	-0.0048
642.291	-0.0037
642.624	-0.0021
642.956	-0.0056
643.289	-0.0063
643.621	-0.0073
643.954	-0.0067
644.286	-0.0072
644.619	-0.0046
644.951	-0.0008
645.283	-0.0002
645.616	-0.0001
645.948	-0.0024
646.28	-0.0006
646.612	-0.0017
646.944	0.0017
647.276	0.0011
647.608	-0.0002
647.94	-0.0006
648.272	0.0019
648.603	0.0055
648.935	0.0054
649.267	0.0016
649.598	-0.0021
649.93	-0.0029
650.261	-0.0025
650.593	0.0058
650.924	0.0074
651.256	0.0085
651.587	0.0024
651.918	0.0046
652.25	0.0006
652.581	-0.004
652.912	-0.0094
653.243	-0.0078
653.574	-0.004
653.905	-0.0022
654.236	0.0001
654.567	0.0033
654.897	0.003
655.228	0.0031
655.559	0.0011
655.89	-0.0007
656.22	-0.003
656.551	-0.0046
656.881	-0.0052
657.212	-0.0066
657.542	-0.0042
657.872	-0.005
658.203	-0.0001
658.533	0.0078
658.863	0.004
659.193	-0.0048
659.523	-0.0096
659.853	-0.0181
660.183	-0.014
660.513	-0.0103
660.843	-0.005
661.173	-0.0013
661.503	-0.0045
661.833	-0.0055
662.162	-0.0078
662.492	-0.0032
662.822	-0.0053
663.151	-0.0044
663.481	-0.009
663.81	-0.0139
664.139	-0.0092
664.469	-0.008
664.798	-0.0023
665.127	-0.0059
665.456	-0.0062
665.785	-0.0045
666.114	-0.0088
666.443	-0.0056
666.772	-0.0053
667.101	-0.0043
667.43	-0.0067
667.759	-0.0053
668.088	-0.005
668.416	-0.0046
668.745	-0.0079
669.074	-0.0057
669.402	-0.0088
669.731	-0.0058
670.059	-0.0075
670.388	0.0008
670.716	-0.004
671.044	-0.0008
671.372	-0.0049
671.701	-0.0032
672.029	-0.0012
672.357	-0.0034
672.685	0.0011
673.013	-0.0013
673.341	0.0045
673.669	-0.0013
673.996	-0.0005
674.324	-0.0037
674.652	-0.0005
674.98	0.001
675.307	-0.0005
675.635	-0.0056
675.962	-0.0062
676.29	-0.006
676.617	0.001
676.945	0.0002
677.272	0.0034
677.599	-0.0005
677.926	-0.0032
678.253	-0.0026
678.581	0.0005
678.908	0.0003
679.235	-0.0004
679.561	-0.0001
679.888	0.0046
680.215	0.0044
680.542	0.0067
680.869	0.0031
681.195	0.004
681.522	0.0031
681.849	0.0022
682.175	-0.0001
682.502	-0.0034
682.828	-0.0011
683.154	-0.0039
683.481	-0.0032
683.807	-0.0086
684.133	-0.0071
684.459	-0.0057
684.785	-0.0022
685.111	-0.0017
685.437	-0.0031
685.763	-0.0057
686.089	-0.0089
686.415	-0.0104
686.741	-0.0083
687.067	-0.0041
687.392	-0.0064
687.718	-0.0075
688.043	-0.0064
688.369	-0.0052
688.694	-0.0044
689.02	-0.0081
689.345	-0.0025
689.67	-0.0037
689.996	-0.0015
690.321	-0.004
690.646	-0.0036
690.971	-0.0043
691.296	-0.0052
691.621	-0.0066
691.946	-0.0075
692.271	-0.007
692.596	-0.0013
692.921	0.002
693.245	0.0054
693.57	0.0008
693.895	0.0032
694.219	-0.0014
694.544	-0.0021
694.868	-0.0038
695.193	-0.0014
695.517	0.0001
695.841	-0.0047
696.166	-0.007
696.49	-0.0085
696.814	-0.0039
697.138	-0.0045
697.462	-0.0054
697.786	-0.0045
698.11	-0.0036
698.434	-0.0013
698.758	-0.0068
699.081	-0.0089
699.405	-0.0089
699.729	-0.0024
700.052	-0.0059
700.376	-0.0032
700.7	-0.0079
701.023	-0.0044
701.346	-0.0067
701.67	-0.0033
701.993	-0.0029
702.316	-0.0029
702.639	-0.0056
702.963	-0.0093
703.286	-0.0086
703.609	-0.0081
703.932	-0.0088
704.255	-0.0065
704.578	-0.0055
704.9	0.0013
705.223	-0.0023
705.546	-0.0025
705.868	-0.009
706.191	-0.0103
706.514	-0.0129
706.836	-0.0097
707.159	-0.0025
707.481	0.0037
707.803	0.0048
708.126	-0.0028
708.448	-0.0063
708.77	-0.0061
709.092	-0.0002
709.414	0.004
709.736	0.0031
710.058	-0.0017
710.38	-0.006
710.702	-0.0078
711.024	-0.0055
711.345	-0.0023
711.667	-0.0012
711.989	-0.0042
712.31	-0.0044
712.632	-0.0019
712.953	0.0029
713.275	0.0041
713.596	0.0054
713.917	0.0039
714.239	-0.0026
714.56	-0.0058
714.881	-0.0057
715.202	-0.0044
715.523	0.0002
715.844	0.0014
716.165	-0.0011
716.486	-0.0054
716.807	-0.0076
717.128	-0.0069
717.448	-0.0057
717.769	-0.0055
718.09	0.0016
718.41	0.0018
718.731	0.0053
719.051	0.0031
719.372	0.0055
719.692	0.0005
720.012	-0.0002
720.332	-0.0051
720.653	-0.0041
720.973	-0.0029
721.293	-0.0063
721.613	-0.0069
721.933	-0.0039
722.253	0.0023
722.573	0.0016
722.892	-0.0054
723.212	-0.0104
723.532	-0.0115
723.851	-0.0057
724.171	-0.007
724.491	-0.0068
724.81	-0.0099
725.129	-0.0008
725.449	0.0034
725.768	-0.0005
726.087	-0.0054
726.407	-0.0023
726.726	0.0009
727.045	0.001
727.364	-0.006
727.683	-0.002
728.002	-0.0021
728.321	-0.0011
728.64	-0.0029
728.958	0.0023
729.277	0.0017
729.596	0.0007
729.914	-0.0019
730.233	0.0022
730.551	-0.0024
730.87	-0.0071
731.188	-0.0063
731.507	-0.0032
731.825	-0.0018
732.143	-0.0101
732.461	-0.006
732.779	-0.0045
733.097	-0.0029
733.415	-0.0064
733.733	-0.0077
734.051	-0.0081
734.369	-0.0074
734.687	-0.0088
735.005	-0.0016
735.322	-0.0009
735.64	-0.0001
735.957	-0.0052
736.275	-0.0038
736.592	-0.0004
736.91	0.0005
737.227	0.0002
737.544	-0.0055
737.862	-0.0019
738.179	-0.006
738.496	0.0003
738.813	-0.0065
739.13	-0.0072
739.447	-0.0069
739.764	-0.0072
740.081	-0.0077
740.398	-0.0087
740.714	-0.0054
741.031	-0
741.348	-0.0021
741.664	0.0012
741.981	0.0019
742.297	0.0028
742.614	-0.0023
742.93	-0.008
743.246	-0.009
743.563	-0.0102
743.879	-0.0125
744.195	-0.0116
744.511	-0.0115
744.827	-0.0069
745.143	-0.0112
745.459	-0.0099
745.775	-0.0102
746.091	-0.0111
746.406	-0.0082
746.722	-0.0058
747.038	-0.0034
747.353	-0.0054
747.669	-0.0089
747.984	-0.0099
748.3	-0.0069
748.615	-0.0088
748.93	-0.0015
749.246	-0.0003
749.561	-0.0013
749.876	-0.0033
750.191	-0.006
750.506	-0.0012
750.821	-0.002
751.136	-0.0034
751.451	-0.0023
751.766	-0.0053
752.08	-0.009
752.395	-0.0082
752.71	-0.0082
753.024	-0.0013
753.339	0.0026
753.653	0.0007
753.968	-0.0028
754.282	-0.0078
754.596	-0.0031
754.911	-0.0035
755.225	0
755.539	-0.0011
755.853	0.0006
756.167	-0.0014
756.481	-0.0033
756.795	-0.0074
757.109	-0.0078
757.423	-0.0074
757.736	-0.0004
758.05	-0.001
758.364	0.0024
758.677	-0.0019
758.991	-0.0019
759.304	-0.0048
759.618	-0.0029
759.931	-0.004
760.244	-0.0011
760.558	-0.0006
760.871	-0.0029
761.184	-0.0054
761.497	-0.0045
761.81	-0.0029
762.123	-0.0032
762.436	-0.0058
762.749	-0.0064
763.062	-0.0026
763.374	-0.0064
763.687	-0.0052
764	-0.0084
764.312	-0.0055
764.625	-0.0053
764.937	-0.0041
765.25	-0.006
765.562	-0.0034
765.874	-0.004
766.186	-0.0036
766.499	-0.0052
766.811	-0.0082
767.123	-0.0086
767.435	-0.0074
767.747	-0.005
768.059	-0.0048
768.37	-0.0067
768.682	-0.0078
768.994	-0.0111
769.306	-0.0131
769.617	-0.012
769.929	-0.0033
770.24	-0.0003
770.552	-0.0025
770.863	-0.0066
771.174	-0.0052
771.486	-0.0029
771.797	-0.0027
772.108	-0.0063
772.419	-0.0061
772.73	-0.0066
773.041	-0.0015
773.352	-0.0007
773.663	-0.0012
773.974	-0.0011
774.285	-0.0036
774.595	-0.0053
774.906	-0.0075
775.217	-0.0035
775.527	-0.001
775.838	0.003
776.148	0.0032
776.458	0.0039
776.769	-0.0004
777.079	-0.0019
777.389	-0.0041
777.699	-0.0025
778.009	-0.0077
778.319	-0.0044
778.629	-0.0059
778.939	0.003
779.249	0.008
779.559	0.0096
779.869	0.0003
780.178	-0.0073
780.488	-0.0085
780.798	-0.0029
781.107	-0.0003
781.417	-0.002
781.726	-0.0053
782.035	-0.0122
782.345	-0.0098
782.654	-0.0098
782.963	0.0017
783.272	0.0028
783.581	0.0048
783.89	-0.002
784.199	-0.0009
784.508	-0.0076
784.817	-0.0127
785.126	-0.0179
785.434	-0.0119
785.743	-0.0036
786.052	-0.0013
786.36	-0.0084
786.669	-0.0103
786.977	-0.0125
787.285	-0.0067
787.594	-0.0071
787.902	-0.0023
788.21	-0.0001
788.518	0.0052
788.826	0.0042
789.135	0.0041
789.442	-0.003
789.75	-0.002
790.058	-0.0069
790.366	-0.0027
790.674	-0.0048
790.981	-0.0021
791.289	-0.0056
791.597	-0.0113
791.904	-0.0153
792.212	-0.0174
792.519	-0.0117
792.826	-0.0069
793.134	-0.0043
793.441	-0.0043
793.748	0.002
794.055	0.0046
794.362	0.0015
794.669	-0.003
794.976	-0.005
795.283	-0.0067
795.59	-0.0054
795.897	-0.0043
796.203	-0.0049
796.51	-0.0097
796.817	-0.0083
797.123	-0.0038
797.43	-0.002
797.736	-0.0039
798.042	-0.0081
798.349	-0.006
798.655	-0.0004
798.961	-0.0003
799.267	-0.0041
799.573	-0.0126
799.879	-0.0111
800.185	-0.014
800.491	-0.0028
800.797	0.0015
801.103	0.0091
801.408	0.0024
801.714	-0.001
802.02	-0.0041
802.325	-0.0032
802.631	-0.0107
802.936	-0.0112
803.242	-0.0123
803.547	-0.0066
803.852	-0.0087
804.157	-0.0062
804.462	-0.0015
804.768	-0.0006
805.073	-0.0015
805.378	-0.0042
805.682	-0.0004
805.987	-0.0035
806.292	0.0004
806.597	-0.0001
806.902	-0.001
807.206	-0.0057
807.511	-0.0088
807.815	-0.013
808.12	-0.0081
808.424	-0.0043
808.728	0.0035
809.033	0.0013
809.337	-0.0063
809.641	-0.0072
809.945	-0.0092
810.249	-0.0009
810.553	0.0014
810.857	-0.0003
811.161	-0.0024
811.465	-0.0039
811.768	-0.0009
812.072	-0.0068
812.376	-0.0075
812.679	-0.0166
812.983	-0.0134
813.286	-0.0212
813.59	-0.0149
813.893	-0.0145
814.196	-0.0043
814.499	0.0006
814.803	0.0034
815.106	-0.0019
815.409	-0.0022
815.712	0.0005
816.015	0
816.318	-0.006
816.62	-0.0115
816.923	-0.0072
817.226	-0.006
817.528	-0.0081
817.831	-0.0103
818.133	-0.0095
818.436	-0.0087
818.738	-0.0028
819.041	-0.0039
819.343	0.0017
819.645	-0.0041
819.947	0.0029
820.249	-0.0031
820.551	-0.0065
820.853	-0.014
821.155	-0.0182
821.457	-0.0136
821.759	-0.0089
822.061	-0.0003
822.362	0
822.664	-0.003
822.966	0.0019
823.267	0.0064
823.569	0.0028
823.87	-0.0103
824.171	-0.0166
824.473	-0.0098
824.774	-0.001
825.075	-0
825.376	-0.0004
825.677	-0.0018
825.978	-0.0008
826.279	-0.0116
826.58	-0.0059
826.881	-0.0115
827.181	-0.002
827.482	-0.0024
827.783	-0.0015
828.083	-0.0074
828.384	-0.0208
828.684	-0.0206
828.985	-0.0216
829.285	-0.0133
829.585	-0.0116
829.885	-0.0117
830.185	-0.0156
830.486	-0.0104
830.786	-0.0048
831.086	0.0049
831.385	-0.0037
831.685	-0.0091
831.985	-0.0207
832.285	-0.0127
832.585	-0.0071
832.884	-0.0017
833.184	-0.0039
833.483	-0.0103
833.783	-0.011
834.082	-0.013
834.381	-0.0053
834.681	-0.0082
834.98	-0.0062
835.279	-0.0082
835.578	-0.0007
835.877	0.0036
836.176	0.0059
836.475	0.0013
836.774	-0.0015
837.072	-0.0058
837.371	0.0005
837.67	0.0056
837.968	0.005
838.267	0
838.565	-0.0002
838.864	0.0016
839.162	-0.001
839.46	-0.015
839.759	0.0014
840.057	0.0012
840.355	0.0055
840.653	-0.0104
840.951	-0.0111
841.249	-0.0076
841.547	-0.0062
841.845	0.0065
842.142	0.0182
842.44	0.0091
842.738	0.0014
843.035	-0.016
843.333	-0.008
843.63	-0.0135
843.928	0.0041
844.225	0.0095
844.522	0.0098
844.82	-0.0119
845.117	-0.0139
845.414	-0.0119
845.711	-0.0062
846.008	-0.0052
846.305	-0.0052
846.602	-0.0069
846.898	-0.0072
847.195	-0.0127
847.492	-0.0146
847.788	-0.0202
848.085	-0.0098
848.382	-0.0041
848.678	-0.0026
848.974	-0.0044
849.271	0.0061
849.567	-0.0022
849.863	-0.0001
850.159	-0.0157
850.455	-0.0119
850.751	-0.0102
851.047	0.0023
851.343	0.0035
851.639	-0.0028
851.935	-0.0063
852.23	-0.0045
852.526	0.0049
852.822	0.0012
853.117	-0.0044
853.413	-0.0044
853.708	-0.0113
854.003	0.0143
854.299	0.0041
854.594	0.009
854.889	-0.0164
855.184	-0.0055
855.479	0.0093
855.774	0.0189
856.069	-0.0023
856.364	-0.0234
856.659	-0.0343
856.954	-0.017
857.248	-0.0109
857.543	0.0062
857.837	0.0007
858.132	0.0123
858.426	-0.001
858.721	-0.0175
859.015	-0.0327
859.309	-0.0318
859.604	-0.0137
859.898	-0.002
860.192	0.007
860.486	0.003
860.78	-0.003
861.074	-0.0011
861.367	0.0058
861.661	0.0101
861.955	0.0073
862.248	0.0037
862.542	-0.0001
862.836	-0.0137
863.129	-0.0123
863.422	-0.0106
863.716	0.0016
864.009	0.0033
864.302	0.0055
864.595	-0.0079
864.889	-0.0197
865.182	-0.0363
865.475	-0.0226
865.767	-0.0234
866.06	-0.0036
866.353	-0.0107
866.646	0.0051
866.938	-0.0323
867.231	-0.036
867.524	-0.0305
867.816	0.0192
868.109	0.0474
868.401	0.0442
868.693	0.0311
868.985	0.0163
869.278	0.0177
869.57	0.0104
869.862	-0.0151
870.154	-0.0133
870.446	-0.0263
870.738	-0.0265
871.029	-0.0514
871.321	-0.0295
871.613	-0.0017
871.904	0.0347
872.196	0.0306
872.487	0.0313
872.779	0.0099
873.07	0.0153
873.362	0.0222
873.653	0.0339
873.944	0.0066
874.235	-0.0279
874.526	-0.0417
874.817	-0.0376
875.108	-0.0249
875.399	-0.0206
875.69	-0.001
875.981	0.002
876.271	-0.001
876.562	0.0042
876.853	0.0005
877.143	-0.0105
877.434	-0.0072
877.724	-0.0297
878.014	0.0029
878.305	-0.0246
878.595	0.0186
878.885	-0.0027
879.175	0.0165
879.465	0.0075
879.755	0.0234
880.045	0.0047
880.335	-0.0145
880.624	-0.0382
880.914	-0.0382
