Data from 30SS01FU_071417_1b_Absorbance_21-24-03-672.txt Node
Date: Tue Jul 18 21:24:03 MDT 2017
User: Tank Lab
Spectrometer: FLMS01220
Trigger mode: 0
Integration Time (sec): 1.000000E-1
Scans to average: 10
Electric dark correction enabled: true
Nonlinearity correction enabled: false
Boxcar width: 1
XAxis mode: Wavelengths
Number of Pixels in Spectrum: 2048
>>>>>Begin Spectral Data<<<<<
179.47	-0
179.856	-0
180.241	0.943
180.626	-0
181.011	3.3948
181.396	-0
181.781	0.55
182.166	-0
182.551	0.1834
182.936	2.2345
183.321	-0
183.706	-0.3354
184.091	0.0002
184.476	0.1911
184.86	-0
185.245	-0.0632
185.63	-0.3945
186.015	-0
186.399	-0
186.784	0.1796
187.169	0.045
187.553	-0.0101
187.938	-0.0584
188.322	0.0438
188.707	0.0416
189.091	0.0315
189.475	0.0387
189.86	0.0341
190.244	0.0675
190.629	0.0712
191.013	0.0794
191.397	0.0971
191.781	0.1396
192.165	0.1683
192.55	0.1764
192.934	0.197
193.318	0.2148
193.702	0.2248
194.086	0.2092
194.47	0.2075
194.854	0.2103
195.238	0.2153
195.622	0.2091
196.006	0.195
196.389	0.183
196.773	0.1762
197.157	0.1789
197.541	0.1777
197.924	0.1741
198.308	0.1615
198.692	0.1554
199.075	0.1479
199.459	0.1504
199.843	0.1473
200.226	0.1443
200.61	0.1356
200.993	0.1317
201.376	0.1285
201.76	0.1234
202.143	0.1225
202.527	0.1202
202.91	0.1195
203.293	0.1128
203.676	0.1118
204.059	0.1083
204.443	0.1111
204.826	0.1071
205.209	0.1056
205.592	0.1014
205.975	0.103
206.358	0.1001
206.741	0.1007
207.124	0.0987
207.507	0.1017
207.89	0.099
208.273	0.0992
208.655	0.0968
209.038	0.0993
209.421	0.0965
209.804	0.097
210.186	0.0917
210.569	0.0935
210.951	0.0924
211.334	0.0931
211.717	0.0887
212.099	0.0879
212.482	0.0874
212.864	0.0887
213.246	0.0868
213.629	0.0866
214.011	0.0838
214.393	0.0844
214.776	0.0829
215.158	0.0839
215.54	0.08
215.922	0.0787
216.305	0.0775
216.687	0.0786
217.069	0.0776
217.451	0.0757
217.833	0.0755
218.215	0.0758
218.597	0.075
218.979	0.0738
219.361	0.0716
219.742	0.0712
220.124	0.0713
220.506	0.0713
220.888	0.0707
221.27	0.0671
221.651	0.0645
222.033	0.063
222.415	0.0633
222.796	0.0619
223.178	0.0602
223.559	0.0586
223.941	0.0565
224.322	0.0553
224.704	0.0551
225.085	0.056
225.466	0.056
225.848	0.0541
226.229	0.0548
226.61	0.0522
226.992	0.0514
227.373	0.0475
227.754	0.0467
228.135	0.0476
228.516	0.0496
228.897	0.0502
229.278	0.0486
229.659	0.0463
230.04	0.0457
230.421	0.0421
230.802	0.0404
231.183	0.0403
231.564	0.0428
231.944	0.0433
232.325	0.0417
232.706	0.0409
233.087	0.0401
233.467	0.0407
233.848	0.0396
234.229	0.0383
234.609	0.0361
234.99	0.0352
235.37	0.0355
235.751	0.0366
236.131	0.0373
236.511	0.0369
236.892	0.0369
237.272	0.0357
237.652	0.0343
238.033	0.032
238.413	0.0311
238.793	0.0315
239.173	0.0318
239.553	0.0327
239.933	0.0334
240.313	0.0335
240.694	0.0315
241.074	0.03
241.453	0.0292
241.833	0.0302
242.213	0.0305
242.593	0.0308
242.973	0.0304
243.353	0.0299
243.732	0.0288
244.112	0.0296
244.492	0.0291
244.872	0.03
245.251	0.0288
245.631	0.0291
246.01	0.0281
246.39	0.0275
246.769	0.0277
247.149	0.0288
247.528	0.0298
247.908	0.0289
248.287	0.0289
248.666	0.0297
249.045	0.0284
249.425	0.0264
249.804	0.0242
250.183	0.0261
250.562	0.0257
250.941	0.0266
251.32	0.0256
251.699	0.0272
252.078	0.025
252.457	0.0243
252.836	0.0228
253.215	0.0242
253.594	0.0249
253.973	0.0244
254.352	0.0245
254.731	0.0253
255.109	0.0262
255.488	0.0252
255.867	0.0233
256.245	0.0237
256.624	0.023
257.002	0.0232
257.381	0.0216
257.759	0.0222
258.138	0.0223
258.516	0.0232
258.895	0.0234
259.273	0.0241
259.651	0.0246
260.03	0.0263
260.408	0.026
260.786	0.0246
261.164	0.0231
261.542	0.0221
261.921	0.0227
262.299	0.022
262.677	0.0215
263.055	0.0215
263.433	0.022
263.811	0.0224
264.188	0.0207
264.566	0.0203
264.944	0.0207
265.322	0.0229
265.7	0.0225
266.077	0.0225
266.455	0.0201
266.833	0.0194
267.21	0.0187
267.588	0.0191
267.966	0.0201
268.343	0.0199
268.721	0.0208
269.098	0.0204
269.475	0.0202
269.853	0.0197
270.23	0.0183
270.607	0.0182
270.985	0.0182
271.362	0.0189
271.739	0.018
272.116	0.0174
272.494	0.0175
272.871	0.0186
273.248	0.0183
273.625	0.0177
274.002	0.0168
274.379	0.0178
274.756	0.0188
275.132	0.0178
275.509	0.0164
275.886	0.0149
276.263	0.0163
276.64	0.0166
277.016	0.0168
277.393	0.0168
277.77	0.0156
278.146	0.0162
278.523	0.0156
278.899	0.0154
279.276	0.0153
279.652	0.0167
280.029	0.0176
280.405	0.0175
280.782	0.0181
281.158	0.0179
281.534	0.0184
281.91	0.0165
282.287	0.0163
282.663	0.0157
283.039	0.0164
283.415	0.0155
283.791	0.0155
284.167	0.0151
284.543	0.0172
284.919	0.0156
285.295	0.0151
285.671	0.0138
286.047	0.0152
286.423	0.0151
286.799	0.0154
287.174	0.0149
287.55	0.0139
287.926	0.0142
288.301	0.0139
288.677	0.0148
289.053	0.0141
289.428	0.0149
289.804	0.015
290.179	0.0148
290.555	0.0137
290.93	0.0132
291.305	0.0122
291.681	0.0124
292.056	0.0127
292.431	0.0124
292.806	0.0137
293.182	0.0139
293.557	0.0159
293.932	0.0146
294.307	0.013
294.682	0.0121
295.057	0.012
295.432	0.0126
295.807	0.0119
296.182	0.0114
296.557	0.0117
296.932	0.0122
297.306	0.0117
297.681	0.0115
298.056	0.0122
298.43	0.0136
298.805	0.0138
299.18	0.0118
299.554	0.0109
299.929	0.0109
300.303	0.0121
300.678	0.0128
301.052	0.0136
301.427	0.0125
301.801	0.0126
302.175	0.0115
302.55	0.0114
302.924	0.0117
303.298	0.0102
303.672	0.0102
304.046	0.0087
304.421	0.0098
304.795	0.0099
305.169	0.0104
305.543	0.01
305.917	0.0095
306.291	0.0101
306.664	0.0114
307.038	0.0118
307.412	0.0102
307.786	0.0107
308.16	0.0121
308.533	0.0124
308.907	0.0117
309.281	0.01
309.654	0.0105
310.028	0.0092
310.401	0.0101
310.775	0.0098
311.148	0.0101
311.522	0.0105
311.895	0.0103
312.268	0.0094
312.642	0.0084
313.015	0.009
313.388	0.0089
313.761	0.0097
314.135	0.008
314.508	0.0085
314.881	0.0088
315.254	0.0097
315.627	0.0097
316	0.0089
316.373	0.0096
316.746	0.0092
317.118	0.0086
317.491	0.0087
317.864	0.0086
318.237	0.0077
318.61	0.0067
318.982	0.0068
319.355	0.0083
319.727	0.0079
320.1	0.0085
320.473	0.0107
320.845	0.0109
321.218	0.0115
321.59	0.0088
321.962	0.009
322.335	0.0077
322.707	0.0068
323.079	0.0067
323.452	0.006
323.824	0.0071
324.196	0.007
324.568	0.0088
324.94	0.0086
325.312	0.0109
325.684	0.0107
326.056	0.0096
326.428	0.0065
326.8	0.0052
327.172	0.0078
327.544	0.0077
327.915	0.0081
328.287	0.005
328.659	0.0061
329.031	0.0066
329.402	0.0083
329.774	0.0073
330.145	0.0068
330.517	0.0063
330.888	0.0055
331.26	0.0043
331.631	0.0046
332.003	0.0056
332.374	0.0071
332.745	0.0073
333.117	0.0078
333.488	0.0081
333.859	0.0069
334.23	0.0069
334.601	0.0049
334.972	0.0054
335.343	0.0054
335.714	0.0057
336.085	0.0063
336.456	0.0055
336.827	0.0045
337.198	0.0045
337.569	0.0041
337.94	0.0047
338.31	0.0036
338.681	0.005
339.052	0.005
339.422	0.005
339.793	0.0052
340.164	0.0059
340.534	0.0043
340.905	0.0038
341.275	0.0046
341.645	0.0079
342.016	0.0077
342.386	0.0081
342.756	0.0057
343.127	0.0046
343.497	0.0029
343.867	0.0028
344.237	0.0028
344.607	0.0022
344.977	0.0031
345.347	0.0037
345.717	0.0028
346.087	0.0024
346.457	0.0026
346.827	0.0048
347.197	0.0044
347.567	0.0022
347.936	0.0027
348.306	0.0048
348.676	0.0082
349.046	0.0073
349.415	0.0054
349.785	0.0027
350.154	0.0026
350.524	0.0056
350.893	0.0059
351.263	0.0058
351.632	0.0022
352.001	0.004
352.371	0.0025
352.74	0.0038
353.109	0.0022
353.478	0.0034
353.847	0.0025
354.217	0.0027
354.586	0.0023
354.955	0.0033
355.324	0.0037
355.693	0.0046
356.062	0.0036
356.43	0.002
356.799	0.0027
357.168	0.0025
357.537	0.0039
357.906	0.0015
358.274	0.0023
358.643	0.0012
359.011	0.0021
359.38	0.0018
359.749	0.0019
360.117	0.0013
360.486	0.0001
360.854	0.0012
361.222	-0.0008
361.591	0.0001
361.959	-0.0011
362.327	0.0011
362.695	0.0004
363.064	0.0007
363.432	-0.0006
363.8	0.001
364.168	0.0026
364.536	0.0029
364.904	0.003
365.272	0.002
365.64	0.0022
366.008	0.002
366.376	0.0001
366.743	0.002
367.111	0.0023
367.479	0.0036
367.847	0.0011
368.214	-0.0008
368.582	-0.0009
368.949	0.0014
369.317	0.0024
369.684	0.0039
370.052	0.0035
370.419	0.0048
370.787	0.0028
371.154	0.0019
371.521	0.0016
371.889	0.0014
372.256	0.0006
372.623	-0.001
372.99	-0.0022
373.357	-0.0014
373.724	-0.0009
374.091	0.0002
374.458	-0.0007
374.825	-0.0024
375.192	-0.0015
375.559	-0.0003
375.926	0.0017
376.293	0.0024
376.659	0.0017
377.026	0.0019
377.393	0.0001
377.759	0.0003
378.126	0.0005
378.492	0.0016
378.859	-0
379.225	-0.0014
379.592	-0.0015
379.958	-0.0016
380.325	-0.0011
380.691	-0.0022
381.057	0.0005
381.423	-0.0011
381.79	0.0018
382.156	0.0015
382.522	0.0023
382.888	-0.0012
383.254	-0.0024
383.62	-0.0018
383.986	-0.0002
384.352	0.0016
384.718	0.001
385.084	0.0036
385.449	0.0026
385.815	0.0015
386.181	0.0005
386.547	0.0005
386.912	-0.0007
387.278	-0.003
387.643	-0.0041
388.009	-0.0011
388.374	0.0002
388.74	-0.0002
389.105	0.0002
389.471	-0.0011
389.836	0.0008
390.201	0.0009
390.566	0.0013
390.932	0.0014
391.297	0.0011
391.662	0.0007
392.027	-0.0015
392.392	-0.005
392.757	-0.0044
393.122	-0.003
393.487	-0.0012
393.852	0.001
394.217	0.0026
394.582	0.0047
394.946	0.0042
395.311	0.005
395.676	0.0056
396.04	-0.0007
396.405	-0.0034
396.77	-0.0069
397.134	-0.0033
397.499	-0.0047
397.863	-0.0069
398.227	-0.0073
398.592	-0.0051
398.956	-0.0019
399.32	0.0008
399.685	0.0021
400.049	0.0041
400.413	0.0051
400.777	0.0007
401.141	0.0032
401.505	0.0009
401.869	0.0015
402.233	-0.004
402.597	-0.0038
402.961	-0.0028
403.325	0.0002
403.689	0.0013
404.053	0.002
404.416	0
404.78	-0.0008
405.144	-0.0001
405.507	-0.0004
405.871	-0.0012
406.234	0.0003
406.598	0.0006
406.961	0.0011
407.325	0.0001
407.688	-0.0012
408.051	0.0003
408.415	-0.0018
408.778	-0.0002
409.141	-0.003
409.504	-0.0009
409.867	-0.0009
410.23	-0.0003
410.593	-0.0039
410.956	-0.002
411.319	-0.0002
411.682	0.0032
412.045	0.0009
412.408	-0.002
412.771	-0.0033
413.134	-0.0026
413.496	-0.0022
413.859	-0.0019
414.222	-0.0034
414.584	-0.0029
414.947	-0.0028
415.309	-0.0002
415.672	0.0006
416.034	0.0011
416.396	0.0007
416.759	0.0017
417.121	0.0015
417.483	0.0016
417.846	0.0033
418.208	0.0028
418.57	0.0031
418.932	0.0002
419.294	0.0004
419.656	-0.0017
420.018	-0.0005
420.38	-0.0007
420.742	0.0005
421.104	-0.0003
421.466	-0.0008
421.827	-0.0018
422.189	-0.0041
422.551	-0.0036
422.912	-0.0012
423.274	0.0015
423.636	0.0027
423.997	0.0022
424.359	0.0024
424.72	0.0029
425.081	0.0003
425.443	-0.002
425.804	-0.0047
426.165	-0.0048
426.527	-0.0066
426.888	-0.0047
427.249	-0.001
427.61	0.0036
427.971	-0.0006
428.332	-0.0044
428.693	-0.0079
429.054	-0.0071
429.415	-0.005
429.776	-0.0043
430.137	-0.0026
430.498	-0.003
430.858	-0.0019
431.219	-0.0001
431.58	-0.0002
431.94	0.0027
432.301	0.0048
432.661	0.0033
433.022	0.0006
433.382	0.0008
433.743	-0.0013
434.103	-0.0012
434.463	-0.0079
434.824	-0.0059
435.184	-0.0032
435.544	-0.0022
435.904	-0.0016
436.264	-0.004
436.624	-0.0015
436.985	-0.0017
437.345	-0.0014
437.704	-0.0027
438.064	-0.0008
438.424	-0.003
438.784	-0.0008
439.144	0.0052
439.504	0.0028
439.863	-0.0029
440.223	-0.0108
440.583	-0.0089
440.942	-0.0033
441.302	-0.0032
441.661	-0.0029
442.021	-0.005
442.38	-0.0063
442.739	-0.0054
443.099	-0.0067
443.458	-0.0052
443.817	-0.0024
444.176	0.0019
444.536	0.0011
444.895	-0.0014
445.254	-0.003
445.613	-0.0023
445.972	-0.0037
446.331	-0.0027
446.69	-0.0051
447.049	-0.0021
447.407	-0.0037
447.766	0.0006
448.125	-0.0011
448.484	-0.0006
448.842	0.0017
449.201	0.0015
449.559	0
449.918	-0.0046
450.276	-0.0022
450.635	-0.0011
450.993	-0.0002
451.352	-0.0022
451.71	-0.0038
452.068	-0.0028
452.426	-0.0014
452.785	-0.0011
453.143	-0.0012
453.501	-0.0036
453.859	-0.0036
454.217	-0.0065
454.575	-0.0052
454.933	-0.0024
455.291	0.002
455.649	-0.0009
456.006	-0.0032
456.364	-0.0033
456.722	-0.0053
457.079	-0.0032
457.437	-0.0048
457.795	0.0021
458.152	0.001
458.51	-0.0006
458.867	-0.0029
459.225	-0.0027
459.582	-0.0006
459.939	-0.0028
460.297	-0.0043
460.654	-0.0064
461.011	-0.0049
461.368	-0.0029
461.725	-0.0035
462.082	-0.0017
462.44	-0.0007
462.797	-0.0002
463.153	0.0007
463.51	-0.0002
463.867	0.0026
464.224	-0.0021
464.581	-0.0057
464.938	-0.0067
465.294	-0.003
465.651	-0.0006
466.008	0.0006
466.364	-0.0012
466.721	-0.0015
467.077	-0.0032
467.434	0.0007
467.79	0.0031
468.146	0.0038
468.503	0.0071
468.859	0.0014
469.215	-0.0038
469.571	-0.0107
469.927	-0.0073
470.284	-0.0045
470.64	-0.0029
470.996	-0.0021
471.352	0.0018
471.707	-0.0003
472.063	-0.001
472.419	-0.0035
472.775	-0.0031
473.131	0.0011
473.486	0.0025
473.842	0.0034
474.198	-0.0003
474.553	-0.0008
474.909	-0.0002
475.264	-0.0006
475.62	0.0008
475.975	0.001
476.331	0.0031
476.686	0.002
477.041	0.0017
477.396	0.0041
477.752	0.0074
478.107	0.0064
478.462	-0
478.817	-0.0029
479.172	0.0002
479.527	0.0042
479.882	0.0014
480.237	-0.0026
480.591	-0.0046
480.946	-0.0038
481.301	-0.0031
481.656	-0.0051
482.01	-0.0036
482.365	-0.0058
482.72	-0.0022
483.074	-0.0015
483.429	0.0011
483.783	-0.0021
484.137	0.0008
484.492	0.0006
484.846	0.002
485.2	-0.0053
485.555	-0.0091
485.909	-0.0066
486.263	-0.0027
486.617	-0.0017
486.971	-0.0016
487.325	0.0016
487.679	0.0077
488.033	0.0022
488.387	0.0059
488.741	0.0068
489.094	-0.0003
489.448	-0.008
489.802	-0.0063
490.156	0.0019
490.509	-0.0029
490.863	-0.0118
491.216	-0.0105
491.57	-0.005
491.923	-0.0017
492.277	-0.0032
492.63	-0.0044
492.983	-0.0057
493.337	-0.0051
493.69	-0.0024
494.043	-0.002
494.396	-0.0037
494.749	-0.0056
495.102	-0.0051
495.455	-0.003
495.808	-0.0058
496.161	-0.0048
496.514	-0.0053
496.867	-0.0027
497.22	-0.0024
497.572	-0.0047
497.925	-0.0038
498.278	-0.008
498.63	-0.0001
498.983	0.0011
499.335	0.0045
499.688	-0.0055
500.04	-0.0091
500.393	-0.0122
500.745	-0.0069
501.097	-0.0026
501.449	-0.003
501.802	-0.0034
502.154	-0.003
502.506	-0.0028
502.858	-0.0031
503.21	-0.0066
503.562	-0.0028
503.914	0.0032
504.266	0.0053
504.618	-0.0014
504.969	-0.0054
505.321	-0.0121
505.673	-0.0074
506.025	-0.0075
506.376	-0.0017
506.728	-0.004
507.079	-0.005
507.431	-0.007
507.782	-0.0042
508.134	-0.003
508.485	-0.0036
508.836	-0.0072
509.188	-0.0063
509.539	-0.0035
509.89	-0.0049
510.241	-0.0087
510.592	-0.0042
510.943	-0.0044
511.294	-0.0033
511.645	-0.0125
511.996	-0.0091
512.347	-0.0075
512.698	-0.0016
513.049	-0.0028
513.399	-0.0041
513.75	-0.0056
514.101	-0.0014
514.451	-0.0003
514.802	-0.0014
515.152	-0.0044
515.503	-0.003
515.853	-0.0041
516.203	-0.0055
516.554	-0.0078
516.904	-0.0041
517.254	-0.0039
517.604	-0.006
517.955	-0.0099
518.305	-0.0072
518.655	-0.0043
519.005	-0.0037
519.355	0.0003
519.705	-0.001
520.055	0.0002
520.404	-0.0045
520.754	-0.0013
521.104	0.0018
521.454	0.0064
521.803	0.0041
522.153	0
522.502	-0.0071
522.852	-0.0103
523.201	-0.0098
523.551	-0.0072
523.9	-0.0029
524.249	-0.0001
524.599	-0.0045
524.948	-0.007
525.297	-0.0061
525.646	-0.0035
525.995	-0.0037
526.344	-0.0073
526.694	-0.0046
527.042	-0.0042
527.391	-0.0044
527.74	-0.0043
528.089	-0.0053
528.438	-0.0031
528.787	-0.0044
529.135	-0.0017
529.484	-0.0017
529.833	-0.0005
530.181	-0.0032
530.53	-0.0062
530.878	-0.008
531.227	-0.0057
531.575	-0.0016
531.923	-0.0052
532.271	-0.0063
532.62	-0.009
532.968	-0.0082
533.316	-0.0084
533.664	-0.0089
534.012	-0.0051
534.36	-0.0043
534.708	-0.0065
535.056	-0.0081
535.404	-0.0114
535.752	-0.0069
536.1	-0.0061
536.447	-0.0044
536.795	-0.0038
537.143	-0.0022
537.49	-0.0023
537.838	-0.0063
538.185	-0.0096
538.533	-0.01
538.88	-0.007
539.228	-0.0067
539.575	-0.0047
539.922	-0.0079
540.269	0.0005
540.617	-0.0007
540.964	-0.0018
541.311	-0.0084
541.658	-0.0067
542.005	-0.0031
542.352	-0.0046
542.699	-0.0091
543.045	-0.0135
543.392	-0.0117
543.739	-0.0092
544.086	-0.0042
544.432	-0.0062
544.779	-0.0049
545.126	-0.0096
545.472	-0.0102
545.819	-0.0105
546.165	-0.0053
546.512	-0.002
546.858	0.0035
547.204	0.0001
547.55	-0.0016
547.897	-0.0056
548.243	-0.009
548.589	-0.0063
548.935	-0.0084
549.281	-0.004
549.627	-0.0074
549.973	-0.0029
550.319	-0.0027
550.665	-0.0011
551.01	-0.0075
551.356	-0.0128
551.702	-0.0158
552.048	-0.0202
552.393	-0.0165
552.739	-0.0105
553.084	-0.0026
553.43	-0.0048
553.775	-0.0097
554.12	-0.0096
554.466	-0.002
554.811	0.0007
555.156	-0.0001
555.502	-0.002
555.847	-0.0056
556.192	-0.0038
556.537	-0.0077
556.882	-0.0052
557.227	-0.0135
557.572	-0.0073
557.917	0.003
558.261	0.0026
558.606	-0.0041
558.951	-0.0146
559.295	-0.014
559.64	-0.0083
559.985	-0.0093
560.329	-0.0042
560.674	-0.0056
561.018	-0.0083
561.363	-0.0092
561.707	-0.0115
562.051	-0.0067
562.395	-0.0006
562.74	-0.0002
563.084	0.0001
563.428	-0.0023
563.772	-0.0015
564.116	-0.0064
564.46	-0.0096
564.804	-0.0053
565.148	-0.0096
565.492	-0.0038
565.835	-0.0028
566.179	0.004
566.523	-0.0054
566.866	-0.014
567.21	-0.0125
567.554	-0.009
567.897	-0.0047
568.24	-0.0101
568.584	-0.0089
568.927	-0.0071
569.271	-0.0061
569.614	-0.0046
569.957	-0.005
570.3	-0.0017
570.643	-0.0036
570.986	-0.0056
571.329	0.0013
571.672	0.006
572.015	0.0022
572.358	-0.0009
572.701	0.0026
573.044	-0.0007
573.387	-0.0028
573.729	-0.0017
574.072	0.0043
574.414	0.0046
574.757	0.0036
575.099	-0.0145
575.442	-0.0217
575.784	-0.0088
576.127	0.0078
576.469	0.0064
576.811	-0.0076
577.153	-0.0059
577.496	-0.0047
577.838	-0.0019
578.18	-0.0172
578.522	-0.0181
578.864	-0.023
579.206	0.0024
579.548	0.0058
579.889	-0.0073
580.231	0.0031
580.573	0.0147
580.915	0.0118
581.256	-0.0131
581.598	-0.0324
581.939	-0.0347
582.281	-0.0056
582.622	-0.0073
582.964	-0.0006
583.305	-0.0157
583.646	-0.0041
583.988	0.0376
584.329	0.023
584.67	0.0056
585.011	-0.0265
585.352	-0.0365
585.693	-0.0211
586.034	-0.0298
586.375	-0.0218
586.716	-0.0166
587.057	-0.0051
587.398	0.0111
587.738	0.0204
588.079	0.0089
588.42	-0.0005
588.76	-0.0237
589.101	-0.0211
589.441	-0.0259
589.782	-0.0117
590.122	-0.0007
590.463	0.0023
590.803	-0.01
591.143	-0.0098
591.483	-0.0173
591.823	-0.0202
592.164	-0.027
592.504	-0.0113
592.844	-0.0044
593.184	-0.0073
593.523	-0.0209
593.863	-0.0174
594.203	-0.0092
594.543	0.0037
594.883	-0.0051
595.222	0.0018
595.562	0.0186
595.901	0.0139
596.241	-0.0001
596.58	-0.0203
596.92	-0.0247
597.259	-0.0279
597.599	-0.0161
597.938	0.0019
598.277	0.0024
598.616	-0.0157
598.955	-0.0229
599.295	-0.0177
599.634	-0.0005
599.973	0.0066
600.312	0.0089
600.65	-0.0073
600.989	-0.0093
601.328	-0.0015
601.667	0.0255
602.005	0.0048
602.344	-0.006
602.683	-0.0126
603.021	-0.0027
603.36	-0.014
603.698	-0.0232
604.037	-0.0239
604.375	-0.0138
604.713	-0.0195
605.052	-0.0138
605.39	-0.0134
605.728	-0.0097
606.066	0.0105
606.404	0.0136
606.742	0.0083
607.08	-0.0056
607.418	-0.0193
607.756	-0.009
608.094	-0.0027
608.431	0.0049
608.769	0.0099
609.107	-0.0114
609.444	-0.0019
609.782	-0.0141
610.12	0.004
610.457	-0.0039
610.794	-0.0203
611.132	-0.0241
611.469	-0.0252
611.806	-0.0173
612.144	-0.0247
612.481	-0.0163
612.818	0.0003
613.155	-0.0095
613.492	-0.0142
613.829	-0.0173
614.166	-0.0005
614.503	-0.0024
614.84	-0.0112
615.176	-0.0131
615.513	-0.0082
615.85	-0.0045
616.187	0.0003
616.523	-0.0113
616.86	-0.0106
617.196	-0.0046
617.533	0.0194
617.869	0.0085
618.205	-0.0039
618.542	-0.025
618.878	-0.0321
619.214	-0.021
619.55	-0.0153
619.886	-0.0036
620.222	-0.0204
620.558	-0.012
620.894	-0.0017
621.23	-0.0008
621.566	-0.0076
621.902	-0.0154
622.238	-0.018
622.573	-0.0009
622.909	-0.0079
623.244	-0.0021
623.58	-0.0265
623.916	-0.0258
624.251	-0.0139
624.586	0.0111
624.922	0.0141
625.257	-0.006
625.592	-0.02
625.927	-0.0176
626.263	-0.0116
626.598	-0.0096
626.933	-0.0074
627.268	-0.0002
627.603	-0.0075
627.938	-0.0179
628.272	-0.015
628.607	-0.0151
628.942	-0.011
629.277	-0.0154
629.611	-0.0021
629.946	0.0076
630.281	-0.0019
630.615	-0.0089
630.949	-0.0231
631.284	-0.0184
631.618	-0.0109
631.953	0.004
632.287	0.0047
632.621	-0.007
632.955	-0.0142
633.289	-0.0139
633.623	-0.011
633.957	-0.0077
634.291	-0.0096
634.625	-0.0044
634.959	-0.0111
635.293	-0.0005
635.627	0.0027
635.96	0.0068
636.294	-0.0043
636.627	-0.0095
636.961	-0.0063
637.294	-0.0086
637.628	-0.0133
637.961	-0.0167
638.295	-0.0074
638.628	0.007
638.961	0.0094
639.294	0.0079
639.628	-0.0055
639.961	-0.0147
640.294	-0.0172
640.627	-0.0124
640.96	-0.0071
641.293	-0.0054
641.625	-0.0083
641.958	-0.013
642.291	-0.0166
642.624	-0.0127
642.956	-0.0099
643.289	-0.0097
643.621	-0.0115
643.954	-0.0124
644.286	-0.0089
644.619	-0.0111
644.951	-0.0071
645.283	-0.0102
645.616	-0.0042
645.948	-0.0052
646.28	0.0004
646.612	-0.0023
646.944	-0.001
647.276	-0.0057
647.608	-0.0034
647.94	-0.0044
648.272	-0.0038
648.603	-0.0095
648.935	-0.007
649.267	-0.0055
649.598	0.0013
649.93	-0.0007
650.261	-0.003
650.593	-0.0012
650.924	0.007
651.256	0.0075
651.587	-0.0012
651.918	-0.0066
652.25	-0.0101
652.581	-0.0115
652.912	-0.018
653.243	-0.0161
653.574	-0.0096
653.905	-0.0046
654.236	-0.009
654.567	-0.0063
654.897	-0.0053
655.228	-0.0047
655.559	-0.0023
655.89	0.0008
656.22	0.0008
656.551	-0.0082
656.881	-0.014
657.212	-0.0122
657.542	-0.0094
657.872	-0.0029
658.203	0.0078
658.533	0.1353
658.863	0.078
659.193	0.011
659.523	-0.0537
659.853	-0.1228
660.183	-0.0707
660.513	-0.0336
660.843	-0.0175
661.173	-0.0102
661.503	-0.0122
661.833	-0.0118
662.162	-0.0148
662.492	-0.0127
662.822	-0.0171
663.151	-0.0199
663.481	-0.0197
663.81	-0.0141
664.139	-0.0096
664.469	-0.0094
664.798	-0.0082
665.127	-0.0054
665.456	-0.0024
665.785	-0.0046
666.114	-0.0044
666.443	-0.0037
666.772	0.0011
667.101	-0.0005
667.43	-0.0013
667.759	-0.0037
668.088	-0.003
668.416	-0.0085
668.745	-0.0082
669.074	-0.0104
669.402	-0.0017
669.731	-0.0025
670.059	-0.0005
670.388	-0.0079
670.716	-0.0095
671.044	-0.0082
671.372	-0.0076
671.701	-0.0049
672.029	-0.0028
672.357	-0.0004
672.685	-0.0006
673.013	-0
673.341	-0.0033
673.669	-0.0075
673.996	-0.0108
674.324	0.0062
674.652	0.0053
674.98	0.0018
675.307	-0.0085
675.635	-0.0134
675.962	-0.0101
676.29	-0.0153
676.617	-0.0098
676.945	-0.0097
677.272	-0.0089
677.599	-0.0045
677.926	-0.0039
678.253	-0.0009
678.581	-0.0083
678.908	-0.005
679.235	0.005
679.561	0.0053
679.888	-0.0054
680.215	-0.0136
680.542	0.0037
680.869	0.0033
681.195	-0.0063
681.522	-0.0175
681.849	-0.0124
682.175	0.0012
682.502	0.0059
682.828	0.0039
683.154	-0.0049
683.481	-0.0134
683.807	-0.0161
684.133	-0.0014
684.459	0.0029
684.785	0.0055
685.111	-0.0108
685.437	-0.0103
685.763	-0.015
686.089	-0.0077
686.415	-0.0043
686.741	-0.0015
687.067	0.002
687.392	-0.0026
687.718	-0.0016
688.043	0.0001
688.369	-0.0016
688.694	-0.0076
689.02	-0.0151
689.345	-0.0194
689.67	-0.0151
689.996	-0.0138
690.321	-0.0069
690.646	-0.011
690.971	-0.0104
691.296	-0.0123
691.621	-0.0084
691.946	-0.0091
692.271	-0.0054
692.596	-0.0042
692.921	-0.0064
693.245	-0.0113
693.57	-0.0036
693.895	0.0102
694.219	0.0092
694.544	-0.0047
694.868	-0.0183
695.193	-0.0181
695.517	-0.0078
695.841	-0.0059
696.166	-0.0057
696.49	-0.0113
696.814	-0.0128
697.138	-0.0095
697.462	-0.0041
697.786	0.0038
698.11	0.0096
698.434	-0.0008
698.758	-0.016
699.081	-0.0285
699.405	-0.0155
699.729	0.0205
700.052	0.018
700.376	0.0062
700.7	-0.0191
701.023	-0.0237
701.346	-0.016
701.67	-0.0096
701.993	-0.0053
702.316	-0.0038
702.639	-0.0019
702.963	-0.0034
703.286	-0.0096
703.609	-0.0042
703.932	-0.0065
704.255	-0.0051
704.578	-0.0038
704.9	0.0056
705.223	0.0063
705.546	0.0016
705.868	-0.0105
706.191	-0.0166
706.514	-0.0233
706.836	-0.018
707.159	-0.0074
707.481	-0.0053
707.803	-0.0063
708.126	-0.0113
708.448	-0.0114
708.77	-0.006
709.092	-0.0056
709.414	0.0064
709.736	0.0077
710.058	0.002
710.38	-0.0078
710.702	-0.0125
711.024	-0.013
711.345	-0.0165
711.667	-0.0182
711.989	-0.0156
712.31	-0.0119
712.632	-0.0088
712.953	-0.0088
713.275	-0.0062
713.596	-0.0065
713.917	-0.0123
714.239	-0.017
714.56	-0.0192
714.881	-0.0079
715.202	-0.0032
715.523	0.0065
715.844	-0.0044
716.165	-0.0027
716.486	-0.0102
716.807	-0.002
717.128	-0.0032
717.448	-0.0041
717.769	-0.0072
718.09	-0.006
718.41	-0.0118
718.731	-0.0131
719.051	-0.0202
719.372	-0.0135
719.692	-0.0072
720.012	0.0028
720.332	-0.0033
720.653	-0.0031
720.973	0.0037
721.293	-0.0007
721.613	-0.0101
721.933	-0.0225
722.253	-0.0125
722.573	-0.0135
722.892	-0.0143
723.212	-0.0137
723.532	-0.0052
723.851	-0.0015
724.171	-0.0045
724.491	-0.0059
724.81	-0.0066
725.129	-0.0064
725.449	-0.005
725.768	-0.0068
726.087	-0.0033
726.407	-0.0065
726.726	-0.0068
727.045	-0.014
727.364	-0.0116
727.683	-0.0117
728.002	-0.0026
728.321	-0.002
728.64	-0.004
728.958	-0.0064
729.277	-0.0086
729.596	-0.0107
729.914	-0.0131
730.233	-0.0118
730.551	-0.0056
730.87	-0.0053
731.188	-0.0038
731.507	-0.014
731.825	-0.0182
732.143	-0.0204
732.461	-0.0089
732.779	-0.007
733.097	-0.0078
733.415	-0.0014
733.733	0.0116
734.051	0.002
734.369	-0.0068
734.687	-0.0224
735.005	-0.017
735.322	-0.0121
735.64	-0.0018
735.957	0.0011
736.275	-0.0033
736.592	-0.0016
736.91	-0.0024
737.227	0.002
737.544	-0.0131
737.862	-0.0114
738.179	-0.0142
738.496	-0.0004
738.813	-0.0069
739.13	-0.0155
739.447	-0.0175
739.764	-0.0061
740.081	-0.002
740.398	-0.0093
740.714	-0.0124
741.031	-0.0086
741.348	-0.0024
741.664	0.0003
741.981	0.0103
742.297	-0.0002
742.614	-0.0117
742.93	-0.0295
743.246	-0.022
743.563	-0.0098
743.879	-0.0007
744.195	-0.0028
744.511	-0.0047
744.827	-0.0071
745.143	0.0051
745.459	0.0115
745.775	0.0067
746.091	-0.0023
746.406	-0.0091
746.722	-0.01
747.038	-0.0135
747.353	-0.0147
747.669	-0.0107
747.984	-0.0099
748.3	-0.0058
748.615	-0.005
748.93	-0.0021
749.246	-0.0119
749.561	-0.012
749.876	-0.0091
750.191	-0.0056
750.506	-0.0099
750.821	-0.0157
751.136	-0.0126
751.451	-0.0056
751.766	-0.0035
752.08	-0.0006
752.395	0
752.71	-0.0005
753.024	-0.0052
753.339	-0.0122
753.653	-0.0158
753.968	-0.0079
754.282	-0.0012
754.596	0.0018
754.911	-0.0024
755.225	0.002
755.539	-0.0014
755.853	-0.0091
756.167	-0.0137
756.481	-0.0115
756.795	-0.0131
757.109	-0.0132
757.423	-0.0121
757.736	-0.0087
758.05	-0.0134
758.364	-0.0065
758.677	-0.0063
758.991	-0.0052
759.304	-0.0021
759.618	0.0056
759.931	0.0049
760.244	0.0077
760.558	-0.0022
760.871	-0.0041
761.184	-0.0228
761.497	-0.0244
761.81	-0.0202
762.123	-0.0058
762.436	0.0023
762.749	-0.0031
763.062	-0.0033
763.374	0.0044
763.687	0.0025
764	-0.0017
764.312	-0.0225
764.625	-0.0225
764.937	-0.0258
765.25	-0.0162
765.562	-0.0028
765.874	-0.0044
766.186	-0.0009
766.499	-0.0122
766.811	-0.0075
767.123	0.0017
767.435	0.0049
767.747	0.0022
768.059	-0.011
768.37	-0.0133
768.682	-0.0186
768.994	-0.0239
769.306	-0.0245
769.617	-0.0182
769.929	-0.0093
770.24	-0.0067
770.552	-0.0013
770.863	0.005
771.174	0.0049
771.486	-0.0028
771.797	-0.01
772.108	-0.0179
772.419	-0.023
772.73	-0.0203
773.041	-0.0138
773.352	-0.0062
773.663	-0.0098
773.974	-0.0096
774.285	-0.0142
774.595	-0.0156
774.906	-0.0144
775.217	-0.0071
775.527	-0.0035
775.838	-0.0085
776.148	-0.0075
776.458	-0.0079
776.769	-0.0029
777.079	-0.0081
777.389	-0.0053
777.699	-0.0028
778.009	-0.0032
778.319	-0.0025
778.629	-0.0153
778.939	-0.0142
779.249	-0.0146
779.559	-0.0054
779.869	-0.0025
780.178	-0.0023
780.488	-0.0021
780.798	-0.0045
781.107	-0.0049
781.417	-0.0056
781.726	-0.0074
782.035	-0.0062
782.345	-0.0079
782.654	-0.0088
782.963	-0.008
783.272	-0.0013
783.581	0.007
783.89	0.0105
784.199	0.0025
784.508	-0.0027
784.817	-0.0147
785.126	-0.0107
785.434	-0.0089
785.743	-0.0075
786.052	-0.0088
786.36	-0.0142
786.669	-0.0114
786.977	-0.0132
787.285	-0.0067
787.594	-0.0069
787.902	-0.0045
788.21	-0.0078
788.518	-0.0016
788.826	-0.0066
789.135	-0.0108
789.442	-0.0213
789.75	-0.0189
790.058	-0.0134
790.366	-0.009
790.674	-0.0033
790.981	0.0008
791.289	0.0004
791.597	-0.0042
791.904	-0.0107
792.212	-0.013
792.519	-0.0171
792.826	-0.0063
793.134	-0.0051
793.441	-0.0051
793.748	-0.0142
794.055	-0.0093
794.362	-0.0018
794.669	-0.0075
794.976	-0.0104
795.283	-0.0177
795.59	-0.0105
795.897	-0.0133
796.203	-0.0119
796.51	0.0042
796.817	0.0153
797.123	0.0061
797.43	-0.0099
797.736	-0.018
798.042	-0.0164
798.349	-0.0157
798.655	-0.0271
798.961	-0.0147
799.267	-0.0143
799.573	-0.0022
799.879	-0.0081
800.185	-0.0025
800.491	-0.0052
800.797	-0.0086
801.103	-0.0131
801.408	-0.0139
801.714	-0.0105
802.02	-0.0121
802.325	-0.007
802.631	-0.0119
802.936	-0.0087
803.242	-0.0133
803.547	-0.012
803.852	-0.0081
804.157	-0.0094
804.462	-0.0023
804.768	-0.0149
805.073	-0.0118
805.378	-0.0168
805.682	-0.0112
805.987	-0.0132
806.292	-0.0147
806.597	-0.0161
806.902	-0.0099
807.206	-0.0104
807.511	-0.0053
807.815	-0.0099
808.12	-0.0019
808.424	0.0009
808.728	0.0055
809.033	0.0094
809.337	-0.0001
809.641	-0.0118
809.945	-0.0162
810.249	-0.0079
810.553	-0.006
810.857	-0.0104
811.161	-0.0129
811.465	-0.0151
811.768	-0.0194
812.072	-0.0201
812.376	-0.0061
812.679	0.0054
812.983	0.0075
813.286	-0.0001
813.59	-0.004
813.893	-0.0034
814.196	-0.0044
814.499	0.0005
814.803	-0.0069
815.106	-0.0143
815.409	-0.0287
815.712	-0.0249
816.015	-0.0149
816.318	-0.0026
816.62	-0.0017
816.923	-0.0134
817.226	-0.0235
817.528	-0.0241
817.831	-0.0089
818.133	-0.0087
818.436	-0.0083
818.738	-0.0137
819.041	-0.0056
819.343	-0.0098
819.645	0.002
819.947	0.001
820.249	0.001
820.551	-0.0121
820.853	-0.0187
821.155	-0.0185
821.457	-0.0092
821.759	-0.0064
822.061	-0.0017
822.362	-0.0078
822.664	-0.0058
822.966	-0.0068
823.267	-0.0084
823.569	-0.0125
823.87	-0.0273
824.171	-0.0323
824.473	-0.0381
824.774	-0.025
825.075	-0.0207
825.376	-0.0123
825.677	-0.0092
825.978	-0.0063
826.279	-0.0111
826.58	-0.0198
826.881	-0.0238
827.181	-0.0251
827.482	-0.0267
827.783	-0.0197
828.083	-0.0111
828.384	-0.0049
828.684	-0.0182
828.985	-0.0169
829.285	-0.0113
829.585	-0.0059
829.885	-0.0057
830.185	-0.0078
830.486	-0.0074
830.786	-0.013
831.086	-0.0176
831.385	-0.0189
831.685	-0.0164
831.985	-0.0171
832.285	-0.0201
832.585	-0.0264
832.884	-0.0319
833.184	-0.0409
833.483	-0.0315
833.783	-0.0281
834.082	-0.0109
834.381	-0.0148
834.681	-0.0041
834.98	-0.0121
835.279	-0.0142
835.578	-0.0145
835.877	-0.0175
836.176	-0.0129
836.475	-0.0213
836.774	-0.0151
837.072	-0.0164
837.371	-0.0025
837.67	0.0025
837.968	0.0067
838.267	-0.0087
838.565	-0.0155
838.864	-0.0206
839.162	-0.0304
839.46	-0.034
839.759	-0.0376
840.057	-0.0219
840.355	-0.0148
840.653	-0.0135
840.951	-0.0138
841.249	-0.0276
841.547	-0.031
841.845	-0.0278
842.142	-0.0159
842.44	-0.0117
842.738	-0.0197
843.035	-0.02
843.333	-0.019
843.63	-0.0202
843.928	-0.01
844.225	-0.0134
844.522	-0.0213
844.82	-0.0318
845.117	-0.0286
845.414	-0.005
845.711	-0.0031
846.008	-0.0116
846.305	-0.026
846.602	-0.0282
846.898	-0.0221
847.195	-0.028
847.492	-0.025
847.788	-0.0196
848.085	-0.016
848.382	-0.0095
848.678	-0.0076
848.974	-0
849.271	0.001
849.567	0.0018
849.863	-0.0063
850.159	-0.0165
850.455	-0.021
850.751	-0.0099
851.047	-0.0084
851.343	-0.0116
851.639	-0.0166
851.935	-0.0115
852.23	-0.0056
852.526	-0.0178
852.822	-0.0198
853.117	-0.0116
853.413	0.0035
853.708	0.0097
854.003	0.0093
854.299	-0.0118
854.594	0.0015
854.889	-0.003
855.184	0.0138
855.479	-0.011
855.774	-0.021
856.069	-0.029
856.364	-0.0276
856.659	-0.0183
856.954	-0.0175
857.248	-0.019
857.543	-0.0389
857.837	-0.0437
858.132	-0.0256
858.426	-0.0029
858.721	0.002
859.015	-0.0139
859.309	-0.0081
859.604	-0.0082
859.898	-0.01
860.192	-0.0254
860.486	-0.0303
860.78	-0.0421
861.074	-0.0502
861.367	-0.0648
861.661	-0.0406
861.955	-0.0296
862.248	-0.0053
862.542	-0.031
862.836	-0.0305
863.129	-0.0224
863.422	-0.0155
863.716	-0.0199
864.009	-0.0381
864.302	-0.0133
864.595	-0.0099
864.889	0.004
865.182	-0.0285
865.475	-0.0194
865.767	-0.0265
866.06	-0.0123
866.353	-0.047
866.646	-0.0385
866.938	-0.0338
867.231	-0.0181
867.524	-0.0212
867.816	-0.0242
868.109	-0.0169
868.401	-0.0236
868.693	-0.0156
868.985	-0.0149
869.278	-0.0096
869.57	-0.024
869.862	-0.0428
870.154	-0.0545
870.446	-0.0115
870.738	0.0092
871.029	0.0233
871.321	-0.0248
871.613	-0.0171
871.904	-0.053
872.196	-0.0335
872.487	-0.0884
872.779	-0.0559
873.07	-0.0373
873.362	0.0085
873.653	-0.0045
873.944	-0.022
874.235	-0.0415
874.526	-0.0136
874.817	-0.0242
875.108	-0.0197
875.399	-0.0074
875.69	-0.0131
875.981	-0.0012
876.271	-0.0379
876.562	-0.0433
876.853	-0.0552
877.143	-0.0508
877.434	-0.0394
877.724	-0.0266
878.014	-0.0115
878.305	-0.0294
878.595	-0.0151
878.885	-0.0496
879.175	-0.0301
879.465	-0.047
879.755	-0.0198
880.045	-0.0009
880.335	0.0213
880.624	0.0406
880.914	0.0406
