Data from 31SS02FU-2_072917_1b_Absorbance_16-42-36-204.txt Node
Date: Wed Aug 02 16:42:36 MDT 2017
User: Tank Lab
Spectrometer: FLMS01220
Trigger mode: 0
Integration Time (sec): 1.000000E-1
Scans to average: 10
Electric dark correction enabled: true
Nonlinearity correction enabled: false
Boxcar width: 1
XAxis mode: Wavelengths
Number of Pixels in Spectrum: 2048
>>>>>Begin Spectral Data<<<<<
179.47	-0
179.856	-0
180.241	-0
180.626	-0
181.011	-0
181.396	-0
181.781	-0.9832
182.166	-0
182.551	-0
182.936	-2.0555
183.321	-0
183.706	0.171
184.091	0.2508
184.476	-0
184.86	0.4465
185.245	-0.1735
185.63	-0
186.015	0.3378
186.399	-0.2358
186.784	-0.9423
187.169	-0
187.553	-0.5574
187.938	-0.2667
188.322	-0.1291
188.707	-0.0372
189.091	0.0016
189.475	0.0143
189.86	0.0383
190.244	0.0696
190.629	0.1023
191.013	0.1425
191.397	0.1805
191.781	0.2366
192.165	0.2974
192.55	0.2968
192.934	0.3184
193.318	0.3422
193.702	0.3859
194.086	0.426
194.47	0.4301
194.854	0.4471
195.238	0.4268
195.622	0.4134
196.006	0.409
196.389	0.406
196.773	0.4038
197.157	0.3805
197.541	0.3636
197.924	0.3438
198.308	0.3286
198.692	0.3173
199.075	0.2985
199.459	0.2862
199.843	0.2708
200.226	0.2631
200.61	0.2492
200.993	0.2359
201.376	0.2261
201.76	0.2189
202.143	0.2131
202.527	0.2092
202.91	0.2069
203.293	0.1997
203.676	0.193
204.059	0.1823
204.443	0.1804
204.826	0.174
205.209	0.1749
205.592	0.1704
205.975	0.1693
206.358	0.1641
206.741	0.164
207.124	0.1649
207.507	0.1662
207.89	0.168
208.273	0.1657
208.655	0.1622
209.038	0.1554
209.421	0.1543
209.804	0.1512
210.186	0.1525
210.569	0.1502
210.951	0.1514
211.334	0.1493
211.717	0.1479
212.099	0.145
212.482	0.1429
212.864	0.142
213.246	0.1399
213.629	0.1375
214.011	0.1345
214.393	0.1316
214.776	0.1301
215.158	0.1292
215.54	0.1287
215.922	0.1246
216.305	0.1213
216.687	0.119
217.069	0.1177
217.451	0.117
217.833	0.1142
218.215	0.111
218.597	0.1081
218.979	0.1073
219.361	0.1045
219.742	0.1003
220.124	0.0962
220.506	0.0926
220.888	0.0894
221.27	0.0869
221.651	0.086
222.033	0.0867
222.415	0.084
222.796	0.0807
223.178	0.0762
223.559	0.0731
223.941	0.0713
224.322	0.0679
224.704	0.0665
225.085	0.0644
225.466	0.0626
225.848	0.0615
226.229	0.0595
226.61	0.058
226.992	0.0536
227.373	0.0503
227.754	0.047
228.135	0.0457
228.516	0.0458
228.897	0.0462
229.278	0.0443
229.659	0.0424
230.04	0.04
230.421	0.0403
230.802	0.0391
231.183	0.0382
231.564	0.0355
231.944	0.033
232.325	0.0316
232.706	0.0318
233.087	0.031
233.467	0.0292
233.848	0.0278
234.229	0.0275
234.609	0.0262
234.99	0.0247
235.37	0.0237
235.751	0.0235
236.131	0.023
236.511	0.023
236.892	0.0236
237.272	0.0217
237.652	0.0208
238.033	0.0192
238.413	0.0199
238.793	0.0194
239.173	0.019
239.553	0.0184
239.933	0.0183
240.313	0.0185
240.694	0.0194
241.074	0.0186
241.453	0.0178
241.833	0.0178
242.213	0.0179
242.593	0.0166
242.973	0.0151
243.353	0.0145
243.732	0.016
244.112	0.016
244.492	0.0148
244.872	0.013
245.251	0.0139
245.631	0.0143
246.01	0.0151
246.39	0.0149
246.769	0.0151
247.149	0.0165
247.528	0.0157
247.908	0.0155
248.287	0.0144
248.666	0.0138
249.045	0.0132
249.425	0.0121
249.804	0.013
250.183	0.0132
250.562	0.0136
250.941	0.0133
251.32	0.0134
251.699	0.013
252.078	0.0132
252.457	0.0129
252.836	0.0137
253.215	0.0119
253.594	0.0126
253.973	0.0118
254.352	0.0125
254.731	0.0127
255.109	0.0137
255.488	0.0133
255.867	0.0127
256.245	0.0123
256.624	0.0139
257.002	0.0136
257.381	0.0154
257.759	0.016
258.138	0.0167
258.516	0.0138
258.895	0.0123
259.273	0.0108
259.651	0.0126
260.03	0.0122
260.408	0.0134
260.786	0.0126
261.164	0.013
261.542	0.0125
261.921	0.0125
262.299	0.0122
262.677	0.0121
263.055	0.0124
263.433	0.0137
263.811	0.0133
264.188	0.0125
264.566	0.012
264.944	0.0121
265.322	0.0123
265.7	0.0116
266.077	0.0126
266.455	0.0119
266.833	0.0112
267.21	0.0109
267.588	0.0122
267.966	0.011
268.343	0.0107
268.721	0.0099
269.098	0.0118
269.475	0.0113
269.853	0.0113
270.23	0.0098
270.607	0.0103
270.985	0.0104
271.362	0.0123
271.739	0.0116
272.116	0.0109
272.494	0.0091
272.871	0.01
273.248	0.0104
273.625	0.0109
274.002	0.0104
274.379	0.0106
274.756	0.0101
275.132	0.0097
275.509	0.0083
275.886	0.0088
276.263	0.0096
276.64	0.0097
277.016	0.0094
277.393	0.0093
277.77	0.0103
278.146	0.0102
278.523	0.0099
278.899	0.0095
279.276	0.01
279.652	0.0092
280.029	0.0099
280.405	0.0101
280.782	0.0096
281.158	0.0096
281.534	0.0098
281.91	0.011
282.287	0.0098
282.663	0.0096
283.039	0.0094
283.415	0.0096
283.791	0.0094
284.167	0.0089
284.543	0.0089
284.919	0.008
285.295	0.0084
285.671	0.0074
286.047	0.0075
286.423	0.0072
286.799	0.0082
287.174	0.0101
287.55	0.0097
287.926	0.0096
288.301	0.0089
288.677	0.0091
289.053	0.0089
289.428	0.0081
289.804	0.0084
290.179	0.008
290.555	0.0083
290.93	0.0075
291.305	0.0073
291.681	0.0074
292.056	0.0068
292.431	0.007
292.806	0.0066
293.182	0.0082
293.557	0.0095
293.932	0.01
294.307	0.0085
294.682	0.0074
295.057	0.0061
295.432	0.0077
295.807	0.0069
296.182	0.007
296.557	0.0057
296.932	0.0062
297.306	0.0075
297.681	0.0081
298.056	0.0079
298.43	0.0067
298.805	0.0061
299.18	0.0057
299.554	0.0062
299.929	0.0071
300.303	0.0089
300.678	0.0093
301.052	0.009
301.427	0.0076
301.801	0.0069
302.175	0.0069
302.55	0.0071
302.924	0.0069
303.298	0.0066
303.672	0.0063
304.046	0.0056
304.421	0.0048
304.795	0.0065
305.169	0.0074
305.543	0.0096
305.917	0.0083
306.291	0.0083
306.664	0.0069
307.038	0.0068
307.412	0.0071
307.786	0.0069
308.16	0.0069
308.533	0.0058
308.907	0.0068
309.281	0.0058
309.654	0.0077
310.028	0.0075
310.401	0.0091
310.775	0.0087
311.148	0.008
311.522	0.0072
311.895	0.0063
312.268	0.005
312.642	0.0049
313.015	0.0049
313.388	0.0079
313.761	0.0077
314.135	0.0078
314.508	0.0058
314.881	0.0064
315.254	0.0071
315.627	0.0066
316	0.0067
316.373	0.0067
316.746	0.0075
317.118	0.0066
317.491	0.0056
317.864	0.0059
318.237	0.0074
318.61	0.0075
318.982	0.0068
319.355	0.0063
319.727	0.0071
320.1	0.0084
320.473	0.0084
320.845	0.0079
321.218	0.0079
321.59	0.0073
321.962	0.0067
322.335	0.0045
322.707	0.0036
323.079	0.0048
323.452	0.0044
323.824	0.0045
324.196	0.0033
324.568	0.0037
324.94	0.004
325.312	0.0042
325.684	0.0039
326.056	0.0044
326.428	0.004
326.8	0.0046
327.172	0.0041
327.544	0.0033
327.915	0.0039
328.287	0.0041
328.659	0.0044
329.031	0.0051
329.402	0.0045
329.774	0.0042
330.145	0.0023
330.517	0.0009
330.888	0.0032
331.26	0.0044
331.631	0.0061
332.003	0.005
332.374	0.0044
332.745	0.0054
333.117	0.0037
333.488	0.0036
333.859	0.0024
334.23	0.0043
334.601	0.0047
334.972	0.0052
335.343	0.0049
335.714	0.0052
336.085	0.0055
336.456	0.0056
336.827	0.0052
337.198	0.0039
337.569	0.0027
337.94	0.0012
338.31	0.0017
338.681	0.0024
339.052	0.0049
339.422	0.0052
339.793	0.0052
340.164	0.0029
340.534	0.0011
340.905	0.0013
341.275	0.0027
341.645	0.0061
342.016	0.0043
342.386	0.0037
342.756	0.0028
343.127	0.0041
343.497	0.005
343.867	0.0036
344.237	0.002
344.607	0.0022
344.977	0.0032
345.347	0.0029
345.717	0.0022
346.087	0.0007
346.457	0.0021
346.827	0.0021
347.197	0.0028
347.567	0.0041
347.936	0.0036
348.306	0.0014
348.676	0.0006
349.046	-0.0014
349.415	0.0013
349.785	0.0007
350.154	0.0033
350.524	0.0036
350.893	0.0032
351.263	0.0024
351.632	0.001
352.001	0.0027
352.371	0.0026
352.74	0.0036
353.109	0.0027
353.478	0.0032
353.847	0.0019
354.217	0.0012
354.586	0.003
354.955	0.0048
355.324	0.0054
355.693	0.0028
356.062	0.0023
356.43	0.0016
356.799	0.004
357.168	0.0029
357.537	0.0023
357.906	0.0004
358.274	0.0018
358.643	0.0043
359.011	0.0037
359.38	0.003
359.749	0.0017
360.117	0.0004
360.486	0.0025
360.854	0.0023
361.222	0.0035
361.591	0.0024
361.959	0.0008
362.327	0.0021
362.695	0.0008
363.064	0.0007
363.432	0.002
363.8	0.0025
364.168	0.0041
364.536	0.0028
364.904	0.0045
365.272	0.0038
365.64	0.0026
366.008	-0.0009
366.376	0.0012
366.743	0.001
367.111	0.0011
367.479	-0.0014
367.847	0.0008
368.214	0.002
368.582	0.0018
368.949	-0.0013
369.317	0.0008
369.684	0.0018
370.052	0.0039
370.419	0.0032
370.787	0.004
371.154	0.0046
371.521	0.0035
371.889	0.0018
372.256	-0.0006
372.623	-0.0008
372.99	0.0005
373.357	0.0014
373.724	0.0005
374.091	0.0009
374.458	0.0016
374.825	0.0008
375.192	-0.0002
375.559	-0.001
375.926	-0.0001
376.293	0.001
376.659	-0.0007
377.026	0.0002
377.393	-0.0007
377.759	0.0018
378.126	0.0016
378.492	0.0022
378.859	0.0025
379.225	0.004
379.592	0.0031
379.958	0.0031
380.325	0.0002
380.691	0.002
381.057	0.001
381.423	0.0022
381.79	0.0004
382.156	-0.0015
382.522	-0.0004
382.888	0.0002
383.254	0.0025
383.62	0.0021
383.986	0.0029
384.352	0.0021
384.718	0.0027
385.084	0.0014
385.449	0.0004
385.815	0
386.181	0.0008
386.547	0.0016
386.912	-0.0008
387.278	-0.0004
387.643	0.0013
388.009	0.0035
388.374	0.0005
388.74	0.0015
389.105	-0.0011
389.471	0.0012
389.836	-0.0001
390.201	0.0017
390.566	0.0027
390.932	0.0035
391.297	0.0044
391.662	0.0018
392.027	0.0003
392.392	-0.0018
392.757	-0.0003
393.122	-0.0009
393.487	0.0012
393.852	0.0014
394.217	0.0014
394.582	0.001
394.946	0.0026
395.311	0.0036
395.676	0.0046
396.04	-0.0012
396.405	-0.0016
396.77	-0.0028
397.134	0.0009
397.499	0.0008
397.863	0.0007
398.227	0.0003
398.592	0.0013
398.956	0.0003
399.32	0.0014
399.685	-0.0003
400.049	0.0008
400.413	-0.001
400.777	0.0013
401.141	0.0024
401.505	0.0038
401.869	0.0015
402.233	-0
402.597	-0.0001
402.961	0.0014
403.325	0.0029
403.689	0.0041
404.053	0.0054
404.416	0.0047
404.78	0.0038
405.144	0.0038
405.507	0.0011
405.871	0.0007
406.234	-0.0003
406.598	0.0029
406.961	0.0024
407.325	0.0015
407.688	0.0008
408.051	0.0001
408.415	0.0013
408.778	0.0005
409.141	0.0017
409.504	-0.0004
409.867	0.0013
410.23	0.0013
410.593	0.0025
410.956	-0.0003
411.319	-0.002
411.682	-0.0023
412.045	-0.0027
412.408	-0.0012
412.771	-0.0003
413.134	0.0016
413.496	0.0004
413.859	0.0018
414.222	0.0027
414.584	0.0042
414.947	-0.0003
415.309	-0.0016
415.672	-0.0027
416.034	-0.0008
416.396	0.0014
416.759	0.0027
417.121	0.0032
417.483	0.0009
417.846	-0.0012
418.208	-0.0012
418.57	-0.0008
418.932	0.0001
419.294	-0.0003
419.656	-0.0001
420.018	0.0014
420.38	0.0013
420.742	0.0005
421.104	0.0015
421.466	0.0034
421.827	0.0044
422.189	0.0034
422.551	0.0031
422.912	0.0017
423.274	0.0013
423.636	-0.0009
423.997	0.0021
424.359	0.0034
424.72	0.004
425.081	0.0045
425.443	0.0015
425.804	0.002
426.165	0.0005
426.527	0.0042
426.888	0.0051
427.249	0.0058
427.61	0.0044
427.971	0.0047
428.332	0.0028
428.693	0.0012
429.054	-0.0008
429.415	-0.0007
429.776	0.0005
430.137	0.0015
430.498	0.0015
430.858	0.0022
431.219	0.0028
431.58	0.003
431.94	0.0023
432.301	0.0042
432.661	0.0033
433.022	0.0035
433.382	0.0001
433.743	0.0015
434.103	0.0001
434.463	-0.0002
434.824	-0.0008
435.184	0.0008
435.544	0.0007
435.904	0.0026
436.264	0.0018
436.624	0.0043
436.985	-0.0001
437.345	-0.002
437.704	-0.0034
438.064	-0.0015
438.424	0.0001
438.784	0.001
439.144	0.0019
439.504	0.0027
439.863	0.0008
440.223	-0.0013
440.583	-0.0007
440.942	-0.0007
441.302	0.0005
441.661	-0.0022
442.021	-0.0013
442.38	-0.0018
442.739	-0.0004
443.099	0.0011
443.458	0.0017
443.817	0.0035
444.176	0.0038
444.536	0.0029
444.895	0.0006
445.254	-0.0003
445.613	0.0019
445.972	0.0004
446.331	-0.0023
446.69	-0.0056
447.049	-0.0051
447.407	-0.0033
447.766	-0.0015
448.125	-0.0006
448.484	-0.0001
448.842	0.0022
449.201	0.003
449.559	0.002
449.918	-0.0016
450.276	-0.0023
450.635	-0.0003
450.993	0.0006
451.352	-0.0003
451.71	-0.0002
452.068	0.0005
452.426	0.0028
452.785	0.0026
453.143	0.0022
453.501	0.0014
453.859	-0.0009
454.217	-0.0016
454.575	-0.0027
454.933	-0.0016
455.291	-0.0003
455.649	0.0012
456.006	0.0027
456.364	0.0023
456.722	0.0012
457.079	0.0017
457.437	0.0052
457.795	0.0053
458.152	0.0034
458.51	0.0016
458.867	-0.0005
459.225	-0.0009
459.582	-0.0008
459.939	0.0011
460.297	0.0007
460.654	-0.0039
461.011	-0.0066
461.368	-0.005
461.725	-0.0017
462.082	0.0007
462.44	-0.0008
462.797	-0.0037
463.153	-0.0033
463.51	-0.0013
463.867	0.0014
464.224	0.0019
464.581	0.0013
464.938	0.0023
465.294	0.0021
465.651	0.005
466.008	0.0044
466.364	0.0036
466.721	0.0017
467.077	0.0028
467.434	0.0038
467.79	0.0004
468.146	-0.0011
468.503	-0.0001
468.859	-0.0005
469.215	-0.0007
469.571	-0.0046
469.927	-0.0023
470.284	-0.0033
470.64	0.0001
470.996	0.0012
471.352	0.0047
471.707	0.0045
472.063	0.004
472.419	0.0048
472.775	0.0047
473.131	0.0043
473.486	0.0019
473.842	0.0021
474.198	0.0013
474.553	-0.0004
474.909	0.0005
475.264	0.0011
475.62	0.0021
475.975	0.0009
476.331	-0.0013
476.686	0.0008
477.041	0.0027
477.396	0.0011
477.752	0.0028
478.107	0.0009
478.462	0.0049
478.817	0
479.172	-0.0021
479.527	-0.0026
479.882	-0.0012
480.237	0.002
480.591	0.0002
480.946	0.0017
481.301	-0.0005
481.656	0.0019
482.01	0.0011
482.365	0.0029
482.72	0.0023
483.074	0.0027
483.429	0.0025
483.783	0.0025
484.137	0.0016
484.492	0.0019
484.846	0.0021
485.2	0.0007
485.555	-0
485.909	-0.0001
486.263	-0.0003
486.617	-0.0017
486.971	-0.0019
487.325	0.0016
487.679	0.0023
488.033	-0.0009
488.387	-0.002
488.741	0.0005
489.094	0.0012
489.448	-0.0006
489.802	-0.0037
490.156	-0.0023
490.509	-0.0008
490.863	0.0001
491.216	0.0003
491.57	-0.0007
491.923	-0.0009
492.277	-0.0008
492.63	-0.002
492.983	-0.0026
493.337	-0.0043
493.69	-0.002
494.043	-0.001
494.396	0.0017
494.749	0.0012
495.102	0
495.455	0.0005
495.808	-0.0017
496.161	0.0023
496.514	0.0032
496.867	0.0053
497.22	0.0034
497.572	0.0011
497.925	0.0001
498.278	-0.0006
498.63	0.0004
498.983	0.0027
499.335	0.0018
499.688	0.0003
500.04	-0.0008
500.393	-0.0014
500.745	-0.0008
501.097	-0.0013
501.449	-0.0019
501.802	-0.0027
502.154	-0.0006
502.506	0.0011
502.858	0.0024
503.21	-0.0002
503.562	0.0016
503.914	0.0024
504.266	0.0026
504.618	-0.0017
504.969	-0.001
505.321	-0.0002
505.673	0.0023
506.025	-0.0008
506.376	-0.0012
506.728	-0.0046
507.079	-0.0039
507.431	-0.0047
507.782	-0.0013
508.134	-0.0003
508.485	-0.0024
508.836	-0.0035
509.188	-0.0024
509.539	0.0032
509.89	0.0041
510.241	0.0014
510.592	-0.0008
510.943	-0.0013
511.294	-0.0015
511.645	-0.0019
511.996	-0.0015
512.347	-0.0013
512.698	-0.0022
513.049	-0.0047
513.399	-0.0016
513.75	-0.0012
514.101	0.0027
514.451	0.0008
514.802	0.0001
515.152	-0.0014
515.503	-0.0017
515.853	0.0009
516.203	0.0013
516.554	0.0017
516.904	-0.0008
517.254	-0.0019
517.604	-0.0015
517.955	-0.0023
518.305	-0.0015
518.655	-0.0028
519.005	-0.002
519.355	-0.0011
519.705	0.0004
520.055	0.002
520.404	0.0005
520.754	-0.0017
521.104	-0.0028
521.454	-0.002
521.803	0.0009
522.153	-0
522.502	-0.0033
522.852	-0.008
523.201	-0.0066
523.551	-0.0043
523.9	-0.0011
524.249	0.0003
524.599	0.0004
524.948	0.0003
525.297	-0.0017
525.646	0.0004
525.995	-0.0012
526.344	-0.001
526.694	-0.0016
527.042	0.0004
527.391	0.0003
527.74	-0.0022
528.089	-0.003
528.438	-0.0034
528.787	-0.0023
529.135	-0.0018
529.484	-0.0042
529.833	-0.0025
530.181	-0.0025
530.53	0.0001
530.878	-0.0014
531.227	-0.002
531.575	-0.0027
531.923	-0.0039
532.271	-0.003
532.62	-0.0037
532.968	0.0003
533.316	0.0002
533.664	0.0025
534.012	-0.0002
534.36	-0.002
534.708	-0.0019
535.056	0.0011
535.404	0.0028
535.752	0.0025
536.1	-0.0025
536.447	-0.0024
536.795	-0.0038
537.143	-0.0016
537.49	-0.0043
537.838	-0.0032
538.185	-0.0059
538.533	-0.0058
538.88	-0.0067
539.228	-0.0053
539.575	-0.0029
539.922	-0.0009
540.269	-0.0004
540.617	0.0012
540.964	-0.0012
541.311	0
541.658	-0.0019
542.005	-0.0034
542.352	-0.0094
542.699	-0.0102
543.045	-0.0079
543.392	-0.0038
543.739	-0.0044
544.086	-0.0041
544.432	-0.0036
544.779	0.0006
545.126	0.0023
545.472	0.0033
545.819	0.0008
546.165	-0.0009
546.512	-0.002
546.858	-0.0001
547.204	0.0004
547.55	0.0028
547.897	-0.0002
548.243	-0.0009
548.589	-0.0033
548.935	-0.0036
549.281	-0.0022
549.627	0.0017
549.973	0.0006
550.319	-0.0026
550.665	-0.0064
551.01	-0.0048
551.356	-0.0025
551.702	-0.002
552.048	-0.0032
552.393	-0.0028
552.739	-0.0022
553.084	0.0008
553.43	-0.0026
553.775	-0.0028
554.12	-0.0024
554.466	0.0026
554.811	0.0002
555.156	-0.0023
555.502	-0.0051
555.847	-0.0031
556.192	-0.0023
556.537	-0.0038
556.882	-0.0066
557.227	-0.0071
557.572	-0.0067
557.917	-0.0022
558.261	0.0004
558.606	-0.0008
558.951	-0.0035
559.295	-0.0052
559.64	-0.0017
559.985	-0.002
560.329	-0.0064
560.674	-0.0091
561.018	-0.0079
561.363	-0.0069
561.707	-0.0086
562.051	-0.0073
562.395	-0.0017
562.74	-0.002
563.084	-0.0032
563.428	-0.0069
563.772	-0.0016
564.116	-0.0025
564.46	-0.002
564.804	-0.0028
565.148	-0.003
565.492	-0.0033
565.835	-0.0041
566.179	-0.0029
566.523	-0.0011
566.866	-0.0012
567.21	-0.0023
567.554	-0.0061
567.897	-0.0062
568.24	-0.0076
568.584	-0.0029
568.927	-0.0014
569.271	0.0005
569.614	-0.0031
569.957	-0.0026
570.3	-0.0012
570.643	0.0021
570.986	-0.0004
571.329	0.0002
571.672	-0.0006
572.015	-0.0017
572.358	-0.0014
572.701	-0.0025
573.044	-0.0009
573.387	-0.003
573.729	-0.0007
574.072	0.0007
574.414	-0.0018
574.757	-0.0046
575.099	-0.0078
575.442	-0.0085
575.784	-0.0059
576.127	-0.003
576.469	0.0009
576.811	-0.0022
577.153	-0.0011
577.496	-0.0016
577.838	0.0016
578.18	-0.0001
578.522	-0.0011
578.864	-0.0024
579.206	-0.002
579.548	-0.0018
579.889	-0.0017
580.231	-0.0011
580.573	0.0016
580.915	0.0002
581.256	-0.0045
581.598	-0.006
581.939	-0.0072
582.281	-0.0012
582.622	-0.0019
582.964	-0.0034
583.305	-0.0045
583.646	-0.0042
583.988	0.0039
584.329	0.0035
584.67	0.0005
585.011	-0.0043
585.352	-0.008
585.693	-0.0062
586.034	-0.0066
586.375	-0.0082
586.716	-0.0081
587.057	-0.009
587.398	-0.0058
587.738	-0.0026
588.079	-0.004
588.42	-0.0036
588.76	-0.0065
589.101	-0.0051
589.441	-0.0048
589.782	-0.0038
590.122	-0.0003
590.463	0.0009
590.803	-0.0007
591.143	-0.0021
591.483	-0.0031
591.823	-0.0034
592.164	-0.0051
592.504	-0.0036
592.844	-0.0048
593.184	-0.0052
593.523	-0.0057
593.863	-0.0044
594.203	-0.0027
594.543	-0.0011
594.883	-0.0032
595.222	-0.0007
595.562	0.0007
595.901	0.0018
596.241	-0.0012
596.58	-0.004
596.92	-0.0055
597.259	-0.0067
597.599	-0.0079
597.938	-0.0048
598.277	-0.0022
598.616	-0.0041
598.955	-0.0061
599.295	-0.0058
599.634	-0.0037
599.973	-0.0021
600.312	-0.005
600.65	-0.0067
600.989	-0.0084
601.328	-0.0055
601.667	0.0034
602.005	0.002
602.344	0.0002
602.683	-0.0032
603.021	-0.0033
603.36	-0.0041
603.698	-0.0062
604.037	-0.0057
604.375	-0.0065
604.713	-0.0063
605.052	-0.0071
605.39	-0.0042
605.728	-0.004
606.066	0.0042
606.404	0.0037
606.742	-0.0004
607.08	-0.002
607.418	-0.0033
607.756	-0.0007
608.094	-0.0018
608.431	-0.0011
608.769	0.0009
609.107	-0.0041
609.444	-0.0029
609.782	-0.0047
610.12	-0.0012
610.457	-0.0026
610.794	-0.0031
611.132	-0.0039
611.469	-0.004
611.806	-0.0026
612.144	-0.0042
612.481	-0.0028
612.818	-0.0025
613.155	-0.0016
613.492	-0.0059
613.829	-0.0079
614.166	-0.0062
614.503	-0.0018
614.84	-0.0023
615.176	-0.0032
615.513	-0.0021
615.85	-0.0011
616.187	-0.0021
616.523	-0.0058
616.86	-0.0056
617.196	-0.0043
617.533	-0.0014
617.869	-0.0042
618.205	-0.004
618.542	-0.0041
618.878	-0.0039
619.214	-0.001
619.55	-0.0019
619.886	-0.0021
620.222	-0.0073
620.558	-0.0074
620.894	-0.0086
621.23	-0.0102
621.566	-0.0109
621.902	-0.0078
622.238	-0.0084
622.573	-0.0038
622.909	-0.0051
623.244	-0.0043
623.58	-0.0105
623.916	-0.0121
624.251	-0.0098
624.586	-0.0055
624.922	-0.0035
625.257	-0.0051
625.592	-0.0075
625.927	-0.0063
626.263	-0.0067
626.598	-0.0071
626.933	-0.0092
627.268	-0.0046
627.603	-0.0031
627.938	-0.0056
628.272	-0.0059
628.607	-0.0069
628.942	-0.0072
629.277	-0.0083
629.611	-0.0091
629.946	-0.0067
630.281	-0.0113
630.615	-0.0127
630.949	-0.0131
631.284	-0.0103
631.618	-0.0063
631.953	-0.0035
632.287	-0.004
632.621	-0.0043
632.955	-0.0066
633.289	-0.0047
633.623	-0.0077
633.957	-0.0081
634.291	-0.009
634.625	-0.0064
634.959	-0.0061
635.293	-0.0079
635.627	-0.0069
635.96	-0.0027
636.294	0.0005
636.627	-0.004
636.961	-0.0072
637.294	-0.0094
637.628	-0.0102
637.961	-0.0118
638.295	-0.01
638.628	-0.0056
638.961	-0.0006
639.294	-0.0021
639.628	-0.0056
639.961	-0.0113
640.294	-0.0136
640.627	-0.0144
640.96	-0.0105
641.293	-0.01
641.625	-0.0053
641.958	-0.0078
642.291	-0.0033
642.624	-0.0083
642.956	-0.0076
643.289	-0.0125
643.621	-0.0064
643.954	-0.0098
644.286	-0.0071
644.619	-0.0108
644.951	-0.0076
645.283	-0.0087
645.616	-0.0065
645.948	-0.0098
646.28	-0.0069
646.612	-0.0083
646.944	-0.0042
647.276	-0.0088
647.608	-0.0103
647.94	-0.0114
648.272	-0.01
648.603	-0.0092
648.935	-0.0062
649.267	-0.0072
649.598	-0.0079
649.93	-0.0109
650.261	-0.0118
650.593	-0.0127
650.924	-0.009
651.256	-0.0072
651.587	-0.002
651.918	-0.004
652.25	-0.0032
652.581	-0.0081
652.912	-0.0077
653.243	-0.0059
653.574	-0.0019
653.905	-0.0042
654.236	-0.0071
654.567	-0.0088
654.897	-0.0084
655.228	-0.0067
655.559	-0.0027
655.89	-0.0001
656.22	-0.0036
656.551	-0.0083
656.881	-0.0111
657.212	-0.0072
657.542	-0.004
657.872	-0.0045
658.203	-0.0083
658.533	0.0001
658.863	0.0103
659.193	-0.0032
659.523	-0.007
659.853	-0.0218
660.183	-0.0144
660.513	-0.015
660.843	-0.0112
661.173	-0.0111
661.503	-0.0085
661.833	-0.0113
662.162	-0.0084
662.492	-0.0054
662.822	-0.0013
663.151	-0.0038
663.481	-0.0057
663.81	-0.0084
664.139	-0.0082
664.469	-0.0107
664.798	-0.0123
665.127	-0.0094
665.456	-0.0087
665.785	-0.0056
666.114	-0.0084
666.443	-0.008
666.772	-0.0051
667.101	-0.0061
667.43	-0.0068
667.759	-0.0089
668.088	-0.0107
668.416	-0.0119
668.745	-0.014
669.074	-0.0133
669.402	-0.0128
669.731	-0.0117
670.059	-0.0075
670.388	-0.013
670.716	-0.0157
671.044	-0.0165
671.372	-0.0096
671.701	-0.007
672.029	-0.0087
672.357	-0.0114
672.685	-0.0129
673.013	-0.0124
673.341	-0.007
673.669	-0.0004
673.996	0.0023
674.324	0.0015
674.652	-0.001
674.98	-0.006
675.307	-0.0092
675.635	-0.0094
675.962	-0.0031
676.29	-0.0043
676.617	-0.0074
676.945	-0.0116
677.272	-0.0124
677.599	-0.0147
677.926	-0.0109
678.253	-0.0084
678.581	-0.0095
678.908	-0.0138
679.235	-0.012
679.561	-0.0115
679.888	-0.0136
680.215	-0.0157
680.542	-0.008
680.869	-0.0072
681.195	-0.0078
681.522	-0.0128
681.849	-0.0159
682.175	-0.0169
682.502	-0.0157
682.828	-0.0149
683.154	-0.0141
683.481	-0.0146
683.807	-0.0119
684.133	-0.0092
684.459	-0.0068
684.785	-0.0008
685.111	-0.0049
685.437	-0.0074
685.763	-0.0124
686.089	-0.0109
686.415	-0.0127
686.741	-0.0122
687.067	-0.0068
687.392	-0.0016
687.718	-0.0039
688.043	-0.006
688.369	-0.0075
688.694	-0.0037
689.02	-0.0076
689.345	-0.0065
689.67	-0.01
689.996	-0.0049
690.321	-0.0083
690.646	-0.0052
690.971	-0.004
691.296	-0.0038
691.621	-0.0052
691.946	-0.0072
692.271	-0.0037
692.596	-0.0006
692.921	-0.0029
693.245	-0.0052
693.57	-0.0095
693.895	-0.0089
694.219	-0.0106
694.544	-0.0104
694.868	-0.0085
695.193	-0.0082
695.517	-0.0057
695.841	-0.0084
696.166	-0.0082
696.49	-0.0134
696.814	-0.0096
697.138	-0.009
697.462	-0.0071
697.786	-0.008
698.11	-0.0073
698.434	-0.004
698.758	-0.0091
699.081	-0.0078
699.405	-0.011
699.729	-0.0025
700.052	-0.0026
700.376	-0.0027
700.7	-0.0078
701.023	-0.0118
701.346	-0.0092
701.67	-0.0097
701.993	-0.0039
702.316	-0.0092
702.639	-0.0089
702.963	-0.011
703.286	-0.0094
703.609	-0.0063
703.932	-0.007
704.255	-0.0038
704.578	-0.0101
704.9	-0.0087
705.223	-0.0112
705.546	-0.0052
705.868	-0.0077
706.191	-0.0076
706.514	-0.0053
706.836	-0.0036
707.159	-0.0076
707.481	-0.0115
707.803	-0.0111
708.126	-0.0085
708.448	-0.0073
708.77	-0.013
709.092	-0.0126
709.414	-0.0142
709.736	-0.0054
710.058	-0.0005
710.38	-0.0003
710.702	-0.0008
711.024	-0.0067
711.345	-0.0069
711.667	-0.0088
711.989	-0.0071
712.31	-0.0089
712.632	-0.0107
712.953	-0.01
713.275	-0.0094
713.596	-0.0071
713.917	-0.0076
714.239	-0.0032
714.56	-0.0053
714.881	-0.0069
715.202	-0.0134
715.523	-0.0151
715.844	-0.0104
716.165	-0.0043
716.486	-0.0025
716.807	-0.0036
717.128	-0.0075
717.448	-0.0042
717.769	-0.0036
718.09	-0.001
718.41	-0.0063
718.731	-0.0041
719.051	-0.0079
719.372	-0.0069
719.692	-0.0138
720.012	-0.011
720.332	-0.0157
720.653	-0.0088
720.973	-0.0089
721.293	-0.0016
721.613	-0.0103
721.933	-0.0133
722.253	-0.0119
722.573	-0.0043
722.892	-0.0019
723.212	-0.0063
723.532	-0.0098
723.851	-0.0123
724.171	-0.0145
724.491	-0.0136
724.81	-0.0107
725.129	-0.0062
725.449	-0.0054
725.768	-0.0061
726.087	-0.0032
726.407	-0.0069
726.726	-0.0051
727.045	-0.0065
727.364	-0.0037
727.683	-0.0052
728.002	-0.0082
728.321	-0.0052
728.64	-0.0048
728.958	-0.0079
729.277	-0.011
729.596	-0.0128
729.914	-0.0094
730.233	-0.0102
730.551	-0.0082
730.87	-0.0112
731.188	-0.0091
731.507	-0.0067
731.825	-0.0057
732.143	-0.0069
732.461	-0.0084
732.779	-0.0086
733.097	-0.0121
733.415	-0.0138
733.733	-0.0108
734.051	-0.009
734.369	-0.0079
734.687	-0.0102
735.005	-0.0087
735.322	-0.0111
735.64	-0.0101
735.957	-0.0111
736.275	-0.016
736.592	-0.0132
736.91	-0.0085
737.227	-0.0023
737.544	-0.0052
737.862	-0.009
738.179	-0.0086
738.496	-0.0062
738.813	-0.0052
739.13	-0.0054
739.447	-0.0065
739.764	-0.0073
740.081	-0.0092
740.398	-0.0155
740.714	-0.0167
741.031	-0.0204
741.348	-0.0173
741.664	-0.0137
741.981	-0.0068
742.297	-0.0047
742.614	-0.0059
742.93	-0.009
743.246	-0.0071
743.563	-0.0088
743.879	-0.0117
744.195	-0.0156
744.511	-0.0156
744.827	-0.0073
745.143	-0.0083
745.459	-0.0045
745.775	-0.0103
746.091	-0.0102
746.406	-0.0138
746.722	-0.0098
747.038	-0.0061
747.353	-0.0059
747.669	-0.0105
747.984	-0.0113
748.3	-0.0107
748.615	-0.0062
748.93	-0.0112
749.246	-0.0157
749.561	-0.0185
749.876	-0.0118
750.191	-0.0062
750.506	-0.004
750.821	-0.0042
751.136	-0.0072
751.451	-0.0119
751.766	-0.0176
752.08	-0.0127
752.395	-0.0056
752.71	0.0003
753.024	-0.0011
753.339	-0.0072
753.653	-0.0116
753.968	-0.0175
754.282	-0.0208
754.596	-0.0199
754.911	-0.0181
755.225	-0.016
755.539	-0.0182
755.853	-0.0185
756.167	-0.017
756.481	-0.0112
756.795	-0.0089
757.109	-0.009
757.423	-0.0137
757.736	-0.011
758.05	-0.0127
758.364	-0.008
758.677	-0.0047
758.991	-0.0035
759.304	-0.0011
759.618	-0.0052
759.931	-0.0034
760.244	-0.0087
760.558	-0.0117
760.871	-0.0131
761.184	-0.0176
761.497	-0.0201
761.81	-0.022
762.123	-0.0146
762.436	-0.0128
762.749	-0.0115
763.062	-0.009
763.374	-0.0051
763.687	-0.0012
764	-0.0048
764.312	-0.0058
764.625	-0.0087
764.937	-0.0102
765.25	-0.0125
765.562	-0.0134
765.874	-0.0062
766.186	-0.0075
766.499	-0.0085
766.811	-0.018
767.123	-0.0172
767.435	-0.0155
767.747	-0.0075
768.059	-0.0056
768.37	-0.0032
768.682	-0.0067
768.994	-0.0096
769.306	-0.0131
769.617	-0.0149
769.929	-0.012
770.24	-0.0039
770.552	-0.0054
770.863	-0.0095
771.174	-0.0178
771.486	-0.0129
771.797	-0.0086
772.108	-0.0091
772.419	-0.0101
772.73	-0.0109
773.041	-0.0066
773.352	-0.0079
773.663	-0.0074
773.974	-0.0062
774.285	-0.0078
774.595	-0.0151
774.906	-0.015
775.217	-0.0136
775.527	-0.0072
775.838	-0.0093
776.148	-0.0147
776.458	-0.0155
776.769	-0.0196
777.079	-0.0136
777.389	-0.0168
777.699	-0.0136
778.009	-0.0106
778.319	-0.0053
778.629	-0.0002
778.939	-0.0022
779.249	-0.0037
779.559	-0.0108
779.869	-0.0106
780.178	-0.0138
780.488	-0.0149
780.798	-0.0189
781.107	-0.0159
781.417	-0.0135
781.726	-0.0103
782.035	-0.0139
782.345	-0.0168
782.654	-0.0169
782.963	-0.0152
783.272	-0.0112
783.581	-0.0095
783.89	-0.0045
784.199	-0.0028
784.508	-0.0062
784.817	-0.0081
785.126	-0.0094
785.434	-0.0102
785.743	-0.0103
786.052	-0.0104
786.36	-0.0096
786.669	-0.0124
786.977	-0.0173
787.285	-0.0167
787.594	-0.0165
787.902	-0.0112
788.21	-0.0135
788.518	-0.0148
788.826	-0.0163
789.135	-0.0151
789.442	-0.0186
789.75	-0.0191
790.058	-0.0198
790.366	-0.0145
790.674	-0.0142
790.981	-0.0111
791.289	-0.0126
791.597	-0.0078
791.904	-0.0108
792.212	-0.0076
792.519	-0.0164
792.826	-0.0102
793.134	-0.0083
793.441	-0.0061
793.748	-0.0079
794.055	-0.0108
794.362	-0.0149
794.669	-0.0193
794.976	-0.0202
795.283	-0.0106
795.59	-0.0043
795.897	-0.004
796.203	-0.0078
796.51	-0.0059
796.817	0.0015
797.123	-0.0014
797.43	-0.0065
797.736	-0.0125
798.042	-0.0157
798.349	-0.0156
798.655	-0.0164
798.961	-0.0122
799.267	-0.0085
799.573	-0.0095
799.879	-0.0059
800.185	-0.0079
800.491	-0.0081
800.797	-0.0112
801.103	-0.0149
801.408	-0.0103
801.714	-0.0124
802.02	-0.0092
802.325	-0.0098
802.631	-0.0068
802.936	-0.0099
803.242	-0.009
803.547	-0.0131
803.852	-0.0089
804.157	-0.0101
804.462	-0.0081
804.768	-0.0087
805.073	-0.0085
805.378	-0.0107
805.682	-0.011
805.987	-0.0134
806.292	-0.0088
806.597	-0.0155
806.902	-0.0104
807.206	-0.0204
807.511	-0.0128
807.815	-0.0129
808.12	-0.0064
808.424	-0.0024
808.728	-0.0124
809.033	-0.0049
809.337	-0.0084
809.641	-0.0052
809.945	-0.0105
810.249	-0.0127
810.553	-0.013
810.857	-0.0183
811.161	-0.0151
811.465	-0.013
811.768	-0.0071
812.072	-0.0111
812.376	-0.007
812.679	-0.0093
812.983	-0.005
813.286	-0.0118
813.59	-0.009
813.893	-0.0062
814.196	-0.0001
814.499	0.0005
814.803	-0.0093
815.106	-0.0075
815.409	-0.0085
815.712	-0.0001
816.015	-0.0073
816.318	0.0016
816.62	-0.0011
816.923	0.0025
817.226	-0.0047
817.528	-0.0093
817.831	-0.0133
818.133	-0.0124
818.436	-0.0121
818.738	-0.0111
819.041	-0.0142
819.343	-0.0043
819.645	-0.0008
819.947	-0.0027
820.249	-0.012
820.551	-0.0172
820.853	-0.0154
821.155	-0.0107
821.457	-0.0111
821.759	-0.0123
822.061	-0.0189
822.362	-0.018
822.664	-0.013
822.966	-0.0147
823.267	-0.013
823.569	-0.0155
823.87	-0.006
824.171	-0.0098
824.473	-0.0104
824.774	-0.0108
825.075	0.0045
825.376	0.0066
825.677	0.0019
825.978	-0.0139
826.279	-0.0145
826.58	-0.018
826.881	-0.0116
827.181	-0.0024
827.482	0.005
827.783	0.0003
828.083	-0.0114
828.384	-0.0065
828.684	0.0016
828.985	-0.0028
829.285	-0.0112
829.585	-0.0191
829.885	-0.0108
830.185	-0.0139
830.486	-0.0133
830.786	-0.0108
831.086	-0.01
831.385	-0.0157
831.685	-0.0209
831.985	-0.0119
832.285	-0.0035
832.585	-0.0001
832.884	-0.0046
833.184	-0.0112
833.483	-0.0057
833.783	-0.009
834.082	-0.0042
834.381	-0.0172
834.681	-0.0231
834.98	-0.0234
835.279	-0.0236
835.578	-0.0183
835.877	-0.0256
836.176	-0.0299
836.475	-0.0172
836.774	-0.0137
837.072	-0.001
837.371	-0.015
837.67	-0.0056
837.968	-0.0088
838.267	0.0012
838.565	-0.0094
838.864	-0.0197
839.162	-0.0318
839.46	-0.0281
839.759	-0.0258
840.057	-0.0177
840.355	-0.015
840.653	-0.0095
840.951	-0.0177
841.249	-0.0201
841.547	-0.0169
841.845	-0.0212
842.142	-0.0112
842.44	-0.0194
842.738	-0.0094
843.035	-0.023
843.333	-0.0217
843.63	-0.0205
843.928	-0.0027
844.225	-0.0021
844.522	-0.0007
844.82	-0.0143
845.117	-0.0065
845.414	-0.0157
845.711	-0.0162
846.008	-0.0234
846.305	-0.0217
846.602	-0.0229
846.898	-0.0179
847.195	-0.0219
847.492	-0.0116
847.788	-0.0287
848.085	-0.0286
848.382	-0.0344
848.678	-0.0273
848.974	-0.0177
849.271	-0.0246
849.567	-0.013
849.863	-0.0131
850.159	-0.0275
850.455	-0.014
850.751	-0.0104
851.047	-0.0017
851.343	-0.0179
851.639	-0.0281
851.935	-0.0081
852.23	-0.0118
852.526	-0.0118
852.822	-0.026
853.117	-0.026
853.413	-0.027
853.708	-0.0258
854.003	-0.0256
854.299	-0.0263
854.594	-0.0286
854.889	-0.012
855.184	-0.0103
855.479	-0.0079
855.774	-0.0176
856.069	-0.0144
856.364	-0.0126
856.659	-0.0194
856.954	-0.0232
857.248	-0.0434
857.543	-0.0467
857.837	-0.0514
858.132	-0.0327
858.426	-0.0229
858.721	-0.0127
859.015	-0.0118
859.309	-0.0156
859.604	-0.0072
859.898	0.0168
860.192	0.0144
860.486	0.0186
860.78	-0.0018
861.074	0.0027
861.367	0.0033
861.661	0.0085
861.955	0.017
862.248	0.0053
862.542	-0.0029
862.836	-0.0209
863.129	-0.029
863.422	-0.0447
863.716	-0.006
864.009	-0.003
864.302	-0.0013
864.595	-0.033
864.889	-0.0329
865.182	-0.0097
865.475	0.008
865.767	0.0041
866.06	0.0002
866.353	-0.0215
866.646	-0.0283
866.938	-0.0436
867.231	-0.0358
867.524	-0.0182
867.816	-0.0023
868.109	-0.0093
868.401	-0.0216
868.693	-0.0239
868.985	-0.0042
869.278	0.0186
869.57	0.0095
869.862	-0.0022
870.154	-0.0338
870.446	-0.0208
870.738	-0.0259
871.029	0.0011
871.321	-0.0213
871.613	-0.021
871.904	-0.011
872.196	0.0062
872.487	0.0043
872.779	-0.0207
873.07	-0.0142
873.362	-0.0353
873.653	-0.0485
873.944	-0.0613
874.235	-0.0187
874.526	0.0154
874.817	0.0126
875.108	0.0197
875.399	-0.0035
875.69	-0.0224
875.981	-0.0369
876.271	-0.0566
876.562	-0.0478
876.853	-0.0348
877.143	-0.0099
877.434	-0.0036
877.724	-0.04
878.014	-0.0303
878.305	-0.0108
878.595	-0.0016
878.885	-0.0116
879.175	-0.0109
879.465	0.0165
879.755	0.0271
880.045	0.0106
880.335	-0.0057
880.624	-0.0312
880.914	-0.0312
