Data from 31SS02FU_072917_1a_Absorbance_17-19-23-826.txt Node
Date: Wed Aug 02 17:19:23 MDT 2017
User: Tank Lab
Spectrometer: FLMS01220
Trigger mode: 0
Integration Time (sec): 1.000000E-1
Scans to average: 10
Electric dark correction enabled: true
Nonlinearity correction enabled: false
Boxcar width: 1
XAxis mode: Wavelengths
Number of Pixels in Spectrum: 2048
>>>>>Begin Spectral Data<<<<<
179.47	0.2895
179.856	0.2895
180.241	-0
180.626	0.4853
181.011	-0
181.396	-0
181.781	-0.7063
182.166	-0
182.551	-0
182.936	-2.1236
183.321	-0
183.706	0.5444
184.091	-0.3731
184.476	-0
184.86	-0
185.245	0.1496
185.63	-0
186.015	-0.8329
186.399	-0.3603
186.784	-0.5209
187.169	-0
187.553	-0.7251
187.938	-0.0878
188.322	-0.0317
188.707	0.0373
189.091	0.027
189.475	0.0125
189.86	0.0151
190.244	0.0569
190.629	0.103
191.013	0.1539
191.397	0.1826
191.781	0.2385
192.165	0.2932
192.55	0.327
192.934	0.3578
193.318	0.371
193.702	0.3763
194.086	0.4102
194.47	0.4235
194.854	0.4475
195.238	0.4431
195.622	0.4233
196.006	0.4308
196.389	0.4107
196.773	0.4083
197.157	0.3891
197.541	0.3826
197.924	0.3601
198.308	0.3404
198.692	0.3276
199.075	0.3207
199.459	0.3033
199.843	0.2788
200.226	0.2608
200.61	0.2484
200.993	0.2412
201.376	0.2357
201.76	0.2321
202.143	0.2258
202.527	0.2207
202.91	0.2146
203.293	0.21
203.676	0.205
204.059	0.1963
204.443	0.1904
204.826	0.1846
205.209	0.1808
205.592	0.1769
205.975	0.1728
206.358	0.1694
206.741	0.1698
207.124	0.1702
207.507	0.1721
207.89	0.1701
208.273	0.1672
208.655	0.1659
209.038	0.1598
209.421	0.1601
209.804	0.1578
210.186	0.16
210.569	0.1561
210.951	0.155
211.334	0.1532
211.717	0.1525
212.099	0.1496
212.482	0.1473
212.864	0.1473
213.246	0.1446
213.629	0.1432
214.011	0.1403
214.393	0.1379
214.776	0.1354
215.158	0.1319
215.54	0.1288
215.922	0.1238
216.305	0.1214
216.687	0.12
217.069	0.1197
217.451	0.1181
217.833	0.1163
218.215	0.1128
218.597	0.111
218.979	0.1098
219.361	0.1071
219.742	0.1026
220.124	0.0993
220.506	0.0969
220.888	0.0929
221.27	0.0903
221.651	0.0878
222.033	0.0895
222.415	0.0871
222.796	0.0854
223.178	0.0801
223.559	0.0762
223.941	0.0727
224.322	0.0713
224.704	0.0688
225.085	0.0668
225.466	0.0636
225.848	0.0624
226.229	0.0605
226.61	0.0598
226.992	0.0563
227.373	0.0544
227.754	0.0493
228.135	0.0474
228.516	0.0463
228.897	0.0478
229.278	0.0453
229.659	0.0427
230.04	0.04
230.421	0.0395
230.802	0.0395
231.183	0.0391
231.564	0.038
231.944	0.0349
232.325	0.0323
232.706	0.032
233.087	0.0319
233.467	0.0312
233.848	0.0298
234.229	0.0277
234.609	0.0266
234.99	0.0247
235.37	0.0248
235.751	0.0233
236.131	0.0227
236.511	0.0222
236.892	0.023
237.272	0.0212
237.652	0.0201
238.033	0.0187
238.413	0.0196
238.793	0.0196
239.173	0.0191
239.553	0.018
239.933	0.0164
240.313	0.017
240.694	0.0184
241.074	0.0183
241.453	0.0168
241.833	0.0184
242.213	0.0189
242.593	0.0185
242.973	0.0158
243.353	0.0159
243.732	0.0158
244.112	0.0134
244.492	0.0122
244.872	0.0114
245.251	0.0143
245.631	0.0141
246.01	0.0153
246.39	0.0137
246.769	0.015
247.149	0.0153
247.528	0.0162
247.908	0.0146
248.287	0.0148
248.666	0.0143
249.045	0.0148
249.425	0.013
249.804	0.0133
250.183	0.0135
250.562	0.0142
250.941	0.0137
251.32	0.0132
251.699	0.0123
252.078	0.0127
252.457	0.0118
252.836	0.0134
253.215	0.0112
253.594	0.0132
253.973	0.0108
254.352	0.0113
254.731	0.01
255.109	0.012
255.488	0.0129
255.867	0.0141
256.245	0.013
256.624	0.0124
257.002	0.0109
257.381	0.012
257.759	0.013
258.138	0.013
258.516	0.0118
258.895	0.0109
259.273	0.0104
259.651	0.0112
260.03	0.0111
260.408	0.012
260.786	0.0108
261.164	0.0105
261.542	0.0092
261.921	0.0094
262.299	0.0088
262.677	0.0096
263.055	0.01
263.433	0.0117
263.811	0.0115
264.188	0.0118
264.566	0.0102
264.944	0.01
265.322	0.0105
265.7	0.0117
266.077	0.0119
266.455	0.0102
266.833	0.0084
267.21	0.0086
267.588	0.0096
267.966	0.0101
268.343	0.0102
268.721	0.0102
269.098	0.0107
269.475	0.0104
269.853	0.0108
270.23	0.0099
270.607	0.0098
270.985	0.0085
271.362	0.0092
271.739	0.0089
272.116	0.0093
272.494	0.0098
272.871	0.0101
273.248	0.0096
273.625	0.0094
274.002	0.0093
274.379	0.0094
274.756	0.0091
275.132	0.0078
275.509	0.0067
275.886	0.0061
276.263	0.0075
276.64	0.0085
277.016	0.0084
277.393	0.0074
277.77	0.0076
278.146	0.0088
278.523	0.0094
278.899	0.009
279.276	0.0085
279.652	0.0086
280.029	0.0087
280.405	0.0094
280.782	0.0081
281.158	0.0081
281.534	0.0069
281.91	0.0074
282.287	0.0082
282.663	0.0082
283.039	0.0085
283.415	0.0086
283.791	0.0092
284.167	0.0097
284.543	0.0092
284.919	0.0082
285.295	0.0077
285.671	0.0074
286.047	0.0074
286.423	0.0069
286.799	0.0071
287.174	0.0085
287.55	0.0081
287.926	0.0076
288.301	0.0066
288.677	0.0075
289.053	0.0083
289.428	0.0077
289.804	0.0074
290.179	0.0059
290.555	0.0059
290.93	0.0064
291.305	0.0073
291.681	0.0087
292.056	0.0079
292.431	0.0066
292.806	0.0052
293.182	0.0056
293.557	0.0077
293.932	0.0083
294.307	0.0074
294.682	0.0059
295.057	0.0051
295.432	0.0066
295.807	0.0069
296.182	0.0069
296.557	0.0053
296.932	0.0047
297.306	0.0045
297.681	0.0054
298.056	0.0063
298.43	0.0065
298.805	0.0066
299.18	0.0057
299.554	0.0058
299.929	0.0057
300.303	0.0073
300.678	0.0085
301.052	0.0096
301.427	0.008
301.801	0.0073
302.175	0.0061
302.55	0.0059
302.924	0.0053
303.298	0.0048
303.672	0.0056
304.046	0.0049
304.421	0.0053
304.795	0.0065
305.169	0.0062
305.543	0.007
305.917	0.0059
306.291	0.0067
306.664	0.0061
307.038	0.006
307.412	0.0053
307.786	0.0055
308.16	0.0059
308.533	0.0058
308.907	0.0053
309.281	0.0044
309.654	0.0073
310.028	0.0079
310.401	0.0084
310.775	0.0067
311.148	0.0062
311.522	0.0069
311.895	0.0074
312.268	0.0067
312.642	0.0055
313.015	0.0044
313.388	0.0069
313.761	0.0056
314.135	0.0054
314.508	0.0042
314.881	0.0056
315.254	0.0065
315.627	0.0061
316	0.0063
316.373	0.0063
316.746	0.0051
317.118	0.0047
317.491	0.0039
317.864	0.0065
318.237	0.0059
318.61	0.0058
318.982	0.0054
319.355	0.0066
319.727	0.0078
320.1	0.0064
320.473	0.0064
320.845	0.0057
321.218	0.0066
321.59	0.0061
321.962	0.0055
322.335	0.0045
322.707	0.0035
323.079	0.0038
323.452	0.0043
323.824	0.0048
324.196	0.0047
324.568	0.0037
324.94	0.004
325.312	0.0057
325.684	0.0048
326.056	0.0038
326.428	0.0019
326.8	0.0026
327.172	0.0039
327.544	0.0045
327.915	0.0053
328.287	0.0054
328.659	0.0041
329.031	0.0038
329.402	0.0025
329.774	0.0041
330.145	0.004
330.517	0.0041
330.888	0.004
331.26	0.0042
331.631	0.0042
332.003	0.0025
332.374	0.0021
332.745	0.0033
333.117	0.0035
333.488	0.0023
333.859	0.0011
334.23	0.0011
334.601	0.0022
334.972	0.0025
335.343	0.0034
335.714	0.0039
336.085	0.0043
336.456	0.0033
336.827	0.0028
337.198	0.0029
337.569	0.0027
337.94	0.0009
338.31	-0.0004
338.681	0.0007
339.052	0.0025
339.422	0.0043
339.793	0.0045
340.164	0.0047
340.534	0.0027
340.905	0.0017
341.275	0.0022
341.645	0.0039
342.016	0.0028
342.386	0.0023
342.756	0.0015
343.127	0.0015
343.497	0.0026
343.867	0.002
344.237	0.0014
344.607	0.0003
344.977	0.0008
345.347	0.0013
345.717	0.0008
346.087	0
346.457	0.001
346.827	0.0003
347.197	0.0017
347.567	0.0016
347.936	0.0027
348.306	0.0008
348.676	0.001
349.046	-0.0002
349.415	0.0008
349.785	-0.0003
350.154	0.0007
350.524	-0.0004
350.893	-0.0006
351.263	-0.0007
351.632	0.0004
352.001	0.0011
352.371	-0
352.74	0.0013
353.109	0.0012
353.478	0.0007
353.847	-0.0007
354.217	-0.0008
354.586	0.0011
354.955	0.0027
355.324	0.0038
355.693	0.0029
356.062	0.0028
356.43	0.0028
356.799	0.0044
357.168	0.0021
357.537	0.0004
357.906	-0.0004
358.274	0.0019
358.643	0.0034
359.011	0.0021
359.38	0.002
359.749	0.0017
360.117	0.0022
360.486	0.0025
360.854	0.0018
361.222	0.0006
361.591	0.0003
361.959	0.0012
362.327	0.0033
362.695	0.002
363.064	0.0007
363.432	0.0007
363.8	0.002
364.168	0.003
364.536	0.0023
364.904	0.0011
365.272	-0.0004
365.64	-0.0004
366.008	-0.0021
366.376	-0.0001
366.743	-0.0015
367.111	-0.0006
367.479	-0.0023
367.847	-0.0012
368.214	-0.0013
368.582	-0.0002
368.949	-0
369.317	0.0028
369.684	0.0014
370.052	0.0008
370.419	-0.0015
370.787	-0.0009
371.154	-0.0001
371.521	0.0003
371.889	0.0011
372.256	-0.0004
372.623	-0.0025
372.99	-0.0033
373.357	-0.0045
373.724	-0.0023
374.091	-0.0009
374.458	0.0008
374.825	-0.0016
375.192	-0.0028
375.559	-0.0027
375.926	-0.0024
376.293	-0.0013
376.659	-0.0024
377.026	-0.0012
377.393	-0.0027
377.759	-0.0009
378.126	-0.0012
378.492	-0.0012
378.859	-0.0017
379.225	-0.0007
379.592	-0.0008
379.958	-0.0003
380.325	-0.0005
380.691	-0.0002
381.057	-0.0005
381.423	-0.0004
381.79	-0.0017
382.156	-0.0034
382.522	-0.0025
382.888	0.0003
383.254	0.0025
383.62	0.0004
383.986	-0
384.352	-0.0021
384.718	-0.001
385.084	-0.0021
385.449	-0.0017
385.815	-0.0027
386.181	-0.0019
386.547	-0.0006
386.912	-0.0022
387.278	-0.0023
387.643	-0.0007
388.009	0.0019
388.374	-0.0003
388.74	0.0001
389.105	-0.0001
389.471	0.0027
389.836	0.0016
390.201	0.0015
390.566	0.0023
390.932	0.0036
391.297	0.0026
391.662	-0.0003
392.027	-0.0021
392.392	-0.0027
392.757	-0.0009
393.122	-0.0006
393.487	0.0003
393.852	0.0011
394.217	-0.0011
394.582	0.0014
394.946	0.0006
395.311	0.0023
395.676	0.0009
396.04	-0.0014
396.405	-0.0046
396.77	-0.0078
397.134	-0.0052
397.499	-0.002
397.863	-0.001
398.227	-0.0033
398.592	-0.0036
398.956	-0.0025
399.32	-0
399.685	0
400.049	0.0004
400.413	-0.0007
400.777	0.0012
401.141	0.003
401.505	0.0017
401.869	-0.0011
402.233	-0.003
402.597	-0.0025
402.961	0.0004
403.325	0.0009
403.689	0.0013
404.053	-0.0004
404.416	-0
404.78	-0.0003
405.144	-0.0005
405.507	-0.0016
405.871	-0.001
406.234	-0.0015
406.598	-0.0002
406.961	0.0005
407.325	-0.0008
407.688	-0.0014
408.051	-0.0008
408.415	-0.0006
408.778	-0.0016
409.141	-0.0018
409.504	0.0009
409.867	0.0025
410.23	0.001
410.593	-0.0007
410.956	-0.0047
411.319	-0.0067
411.682	-0.007
412.045	-0.005
412.408	-0.004
412.771	-0.0027
413.134	-0.0022
413.496	-0.0017
413.859	-0.0009
414.222	0.0004
414.584	0.0024
414.947	0.0005
415.309	0.0007
415.672	-0.0019
416.034	-0.0024
416.396	-0.0043
416.759	-0.0039
417.121	-0.0038
417.483	-0.0033
417.846	-0.0032
418.208	-0.0025
418.57	-0.0017
418.932	-0.0004
419.294	-0.0017
419.656	-0.0003
420.018	-0.0016
420.38	-0.0009
420.742	-0.0017
421.104	-0.0001
421.466	0.0016
421.827	0.0028
422.189	0.0011
422.551	-0.0019
422.912	-0.004
423.274	-0.0027
423.636	-0.0018
423.997	-0.0012
424.359	-0.0014
424.72	-0
425.081	0.0005
425.443	-0.0001
425.804	-0.001
426.165	-0.002
426.527	0.001
426.888	-0.0002
427.249	0.0015
427.61	0.0003
427.971	0.0011
428.332	-0
428.693	-0.002
429.054	-0.0025
429.415	-0.003
429.776	-0.0003
430.137	0.0005
430.498	0
430.858	-0.0028
431.219	-0.0018
431.58	-0.0019
431.94	0.0001
432.301	0.0022
432.661	0.0017
433.022	-0.0006
433.382	-0.0041
433.743	-0.003
434.103	-0.0012
434.463	-0.0014
434.824	-0.0028
435.184	-0.003
435.544	-0.0029
435.904	-0.0028
436.264	-0.0035
436.624	-0.0009
436.985	-0.001
437.345	0.0005
437.704	-0.0034
438.064	-0.0044
438.424	-0.0056
438.784	-0.0045
439.144	-0.0021
439.504	-0.0015
439.863	-0.0002
440.223	-0.0018
440.583	-0.0026
440.942	-0.0011
441.302	0.0003
441.661	-0.0008
442.021	-0.0034
442.38	-0.0047
442.739	-0.0038
443.099	-0.002
443.458	-0.0002
443.817	0.0007
444.176	0.0011
444.536	-0.0006
444.895	-0.0012
445.254	-0.0016
445.613	0.0015
445.972	0.0019
446.331	-0.001
446.69	-0.0028
447.049	-0.004
447.407	-0.0024
447.766	-0.004
448.125	-0.0021
448.484	-0.0005
448.842	0.0018
449.201	-0.0001
449.559	-0.0022
449.918	-0.0037
450.276	-0.0035
450.635	-0.0012
450.993	-0.0001
451.352	-0.0016
451.71	-0.003
452.068	-0.0054
452.426	-0.003
452.785	-0.0011
453.143	0.0003
453.501	0.0008
453.859	-0.0017
454.217	-0.0003
454.575	-0.0025
454.933	-0.0036
455.291	-0.0036
455.649	-0.0028
456.006	-0.001
456.364	-0.002
456.722	-0.0007
457.079	-0.0004
457.437	0.0016
457.795	0.0002
458.152	0.0012
458.51	0.0014
458.867	0.0027
459.225	0.0009
459.582	-0.002
459.939	-0.0035
460.297	-0.0041
460.654	-0.0042
461.011	-0.0057
461.368	-0.0073
461.725	-0.0068
462.082	-0.0074
462.44	-0.0041
462.797	-0.0065
463.153	-0.0026
463.51	-0.0042
463.867	-0.0019
464.224	-0.0032
464.581	-0.003
464.938	-0.0023
465.294	-0.0032
465.651	-0.0022
466.008	-0.0017
466.364	-0.0011
466.721	0.0012
467.077	0.0004
467.434	0.0021
467.79	-0.0002
468.146	0.0017
468.503	-0.0001
468.859	-0.0015
469.215	-0.0054
469.571	-0.0044
469.927	-0.0024
470.284	-0.0015
470.64	-0.0028
470.996	-0.003
471.352	0.0002
471.707	0.0009
472.063	-0.001
472.419	-0.0017
472.775	-0.0023
473.131	-0.0028
473.486	-0.0075
473.842	-0.0069
474.198	-0.006
474.553	-0.0024
474.909	-0.002
475.264	-0.0016
475.62	-0.0035
475.975	-0.0041
476.331	-0.0041
476.686	-0.0018
477.041	0
477.396	-0.0025
477.752	-0.0004
478.107	-0.001
478.462	0.0021
478.817	-0.0007
479.172	-0.0028
479.527	-0.0014
479.882	-0.0027
480.237	-0.0021
480.591	-0.0053
480.946	-0.0032
481.301	-0.0033
481.656	-0.0004
482.01	-0
482.365	0.0021
482.72	0.0018
483.074	0.0011
483.429	-0.002
483.783	-0.0032
484.137	-0.0034
484.492	-0.0009
484.846	0.0002
485.2	-0
485.555	-0.0009
485.909	-0.0007
486.263	-0.0005
486.617	0.0001
486.971	-0.0013
487.325	-0.0002
487.679	-0.0013
488.033	-0.003
488.387	-0.0047
488.741	-0.0021
489.094	-0.0027
489.448	-0.0048
489.802	-0.0059
490.156	-0.0031
490.509	-0.0002
490.863	-0.0024
491.216	-0.0042
491.57	-0.0058
491.923	-0.0039
492.277	-0.0024
492.63	-0.0043
492.983	-0.0069
493.337	-0.0069
493.69	-0.0027
494.043	-0.0024
494.396	-0.0032
494.749	-0.0038
495.102	-0.003
495.455	-0.0032
495.808	-0.0056
496.161	-0.0033
496.514	-0.0027
496.867	-0.0016
497.22	-0.0033
497.572	-0.0033
497.925	-0.0033
498.278	-0.0023
498.63	-0.0031
498.983	-0.0005
499.335	-0.0004
499.688	-0.0007
500.04	-0.0015
500.393	-0.0019
500.745	-0.0008
501.097	-0.0014
501.449	-0.0019
501.802	-0.0026
502.154	-0.0018
502.506	-0.0002
502.858	-0.0002
503.21	-0.0013
503.562	-0.0032
503.914	-0.003
504.266	-0.0033
504.618	-0.0058
504.969	-0.0049
505.321	-0.0038
505.673	-0.0023
506.025	-0.0056
506.376	-0.0078
506.728	-0.009
507.079	-0.0078
507.431	-0.0077
507.782	-0.0046
508.134	-0.0005
508.485	-0.0029
508.836	-0.0048
509.188	-0.0059
509.539	-0.0024
509.89	-0.0013
510.241	-0.0055
510.592	-0.0049
510.943	-0.0047
511.294	-0.0032
511.645	-0.0032
511.996	-0.0027
512.347	-0.0023
512.698	-0.0039
513.049	-0.0053
513.399	-0.003
513.75	-0.0053
514.101	-0.0046
514.451	-0.0072
514.802	-0.0058
515.152	-0.0053
515.503	-0.0027
515.853	-0.0011
516.203	-0.0012
516.554	-0.0016
516.904	-0.0006
517.254	-0.0022
517.604	-0.0023
517.955	-0.0026
518.305	-0.0016
518.655	-0.0046
519.005	-0.0058
519.355	-0.0044
519.705	-0.003
520.055	-0.0034
520.404	-0.0049
520.754	-0.0062
521.104	-0.0061
521.454	-0.0059
521.803	-0.0036
522.153	-0.0035
522.502	-0.0074
522.852	-0.0093
523.201	-0.0091
523.551	-0.0052
523.9	-0.0046
524.249	-0.0057
524.599	-0.0064
524.948	-0.0071
525.297	-0.0071
525.646	-0.005
525.995	-0.0049
526.344	-0.003
526.694	-0.0029
527.042	-0.0017
527.391	-0.0032
527.74	-0.0051
528.089	-0.0052
528.438	-0.003
528.787	-0.0015
529.135	-0.0042
529.484	-0.0081
529.833	-0.008
530.181	-0.0078
530.53	-0.0056
530.878	-0.0077
531.227	-0.004
531.575	-0.0045
531.923	-0.005
532.271	-0.0059
532.62	-0.005
532.968	-0.0025
533.316	-0.0015
533.664	0.0006
534.012	-0
534.36	-0.0015
534.708	-0.0033
535.056	-0.003
535.404	-0.0026
535.752	-0.0014
536.1	-0.0036
536.447	-0.0047
536.795	-0.0059
537.143	-0.0034
537.49	-0.0021
537.838	-0.0039
538.185	-0.0058
538.533	-0.009
538.88	-0.0095
539.228	-0.0095
539.575	-0.008
539.922	-0.0075
540.269	-0.0063
540.617	-0.005
540.964	-0.0038
541.311	-0.004
541.658	-0.0048
542.005	-0.0043
542.352	-0.0064
542.699	-0.006
543.045	-0.0065
543.392	-0.0034
543.739	-0.0044
544.086	-0.0044
544.432	-0.0063
544.779	-0.0066
545.126	-0.0079
545.472	-0.0083
545.819	-0.0077
546.165	-0.0051
546.512	-0.0041
546.858	-0.0001
547.204	-0.0023
547.55	-0.0017
547.897	-0.0021
548.243	-0.0017
548.589	-0.0031
548.935	-0.0074
549.281	-0.0074
549.627	-0.0067
549.973	-0.0058
550.319	-0.0042
550.665	-0.0057
551.01	-0.0059
551.356	-0.0084
551.702	-0.0085
552.048	-0.0087
552.393	-0.0077
552.739	-0.0077
553.084	-0.0052
553.43	-0.0071
553.775	-0.0067
554.12	-0.0072
554.466	-0.0061
554.811	-0.0047
555.156	-0.0062
555.502	-0.0067
555.847	-0.0063
556.192	-0.0059
556.537	-0.0058
556.882	-0.0093
557.227	-0.0087
557.572	-0.0094
557.917	-0.0055
558.261	-0.0063
558.606	-0.0081
558.951	-0.0101
559.295	-0.0091
559.64	-0.0056
559.985	-0.0053
560.329	-0.0091
560.674	-0.0094
561.018	-0.0084
561.363	-0.0077
561.707	-0.0082
562.051	-0.0087
562.395	-0.0037
562.74	-0.0026
563.084	-0.0019
563.428	-0.0045
563.772	-0.0022
564.116	-0.0019
564.46	-0.0024
564.804	-0.0032
565.148	-0.0023
565.492	-0.0022
565.835	-0.0019
566.179	-0.0037
566.523	-0.0031
566.866	-0.0069
567.21	-0.0056
567.554	-0.0076
567.897	-0.0056
568.24	-0.0099
568.584	-0.01
568.927	-0.0104
569.271	-0.008
569.614	-0.0068
569.957	-0.004
570.3	-0.0034
570.643	-0.003
570.986	-0.0065
571.329	-0.0064
571.672	-0.0058
572.015	-0.0059
572.358	-0.0044
572.701	-0.0052
573.044	-0.005
573.387	-0.0075
573.729	-0.0051
574.072	-0.0044
574.414	-0.0043
574.757	-0.0051
575.099	-0.0089
575.442	-0.0093
575.784	-0.0074
576.127	-0.0025
576.469	-0.0039
576.811	-0.0081
577.153	-0.0064
577.496	-0.0048
577.838	-0.0024
578.18	-0.0047
578.522	-0.0044
578.864	-0.0052
579.206	-0.0024
579.548	-0.0018
579.889	-0.0039
580.231	-0.0037
580.573	-0.0026
580.915	-0.0001
581.256	-0.0058
581.598	-0.0077
581.939	-0.0131
582.281	-0.0049
582.622	-0.0062
582.964	-0.0041
583.305	-0.0078
583.646	-0.0074
583.988	0.0013
584.329	0.0022
584.67	-0.0023
585.011	-0.0072
585.352	-0.0124
585.693	-0.0098
586.034	-0.0138
586.375	-0.0142
586.716	-0.0109
587.057	-0.0068
587.398	-0.0042
587.738	-0.0036
588.079	-0.0064
588.42	-0.0074
588.76	-0.0103
589.101	-0.0102
589.441	-0.0105
589.782	-0.0103
590.122	-0.0063
590.463	-0.0039
590.803	-0.0062
591.143	-0.0052
591.483	-0.0068
591.823	-0.0056
592.164	-0.0086
592.504	-0.0056
592.844	-0.005
593.184	-0.0063
593.523	-0.009
593.863	-0.0082
594.203	-0.0079
594.543	-0.003
594.883	-0.0084
595.222	-0.0087
595.562	-0.0057
595.901	-0.0034
596.241	-0.0047
596.58	-0.0106
596.92	-0.0112
597.259	-0.0118
597.599	-0.0092
597.938	-0.0048
598.277	-0.0023
598.616	-0.0062
598.955	-0.009
599.295	-0.007
599.634	-0.004
599.973	-0.0008
600.312	-0.0052
600.65	-0.0068
600.989	-0.0111
601.328	-0.0067
601.667	0.0014
602.005	0.0014
602.344	-0.0031
602.683	-0.0073
603.021	-0.0068
603.36	-0.009
603.698	-0.0113
604.037	-0.0115
604.375	-0.0079
604.713	-0.0078
605.052	-0.0084
605.39	-0.0063
605.728	-0.0036
606.066	0.0042
606.404	0.0026
606.742	-0.003
607.08	-0.0057
607.418	-0.0062
607.756	-0.004
608.094	-0.0047
608.431	-0.0057
608.769	-0.0019
609.107	-0.0067
609.444	-0.0033
609.782	-0.0069
610.12	-0.0036
610.457	-0.0061
610.794	-0.0085
611.132	-0.01
611.469	-0.0117
611.806	-0.0095
612.144	-0.0119
612.481	-0.0096
612.818	-0.0071
613.155	-0.0029
613.492	-0.0054
613.829	-0.0067
614.166	-0.0064
614.503	-0.0054
614.84	-0.0082
615.176	-0.0102
615.513	-0.0055
615.85	-0.0026
616.187	-0
616.523	-0.0028
616.86	-0.0027
617.196	-0.0031
617.533	-0.0002
617.869	-0.0034
618.205	-0.0063
618.542	-0.0077
618.878	-0.009
619.214	-0.0071
619.55	-0.0089
619.886	-0.006
620.222	-0.007
620.558	-0.006
620.894	-0.0068
621.23	-0.0094
621.566	-0.0119
621.902	-0.01
622.238	-0.0123
622.573	-0.0073
622.909	-0.008
623.244	-0.0066
623.58	-0.011
623.916	-0.0126
624.251	-0.0096
624.586	-0.0053
624.922	-0.0037
625.257	-0.0059
625.592	-0.0103
625.927	-0.009
626.263	-0.0056
626.598	-0.0071
626.933	-0.0079
627.268	-0.0084
627.603	-0.0035
627.938	-0.0066
628.272	-0.0074
628.607	-0.0104
628.942	-0.0121
629.277	-0.0112
629.611	-0.0136
629.946	-0.01
630.281	-0.0115
630.615	-0.0113
630.949	-0.0118
631.284	-0.0104
631.618	-0.0068
631.953	-0.0061
632.287	-0.008
632.621	-0.0107
632.955	-0.0106
633.289	-0.0103
633.623	-0.0129
633.957	-0.0121
634.291	-0.0115
634.625	-0.0077
634.959	-0.01
635.293	-0.0094
635.627	-0.0081
635.96	-0.0071
636.294	-0.0073
636.627	-0.0092
636.961	-0.0086
637.294	-0.0088
637.628	-0.011
637.961	-0.0127
638.295	-0.0117
638.628	-0.0048
638.961	-0.0021
639.294	-0.0009
639.628	-0.0052
639.961	-0.0068
640.294	-0.0116
640.627	-0.0099
640.96	-0.0098
641.293	-0.0099
641.625	-0.008
641.958	-0.0085
642.291	-0.0038
642.624	-0.0055
642.956	-0.0073
643.289	-0.0112
643.621	-0.0079
643.954	-0.0065
644.286	-0.0022
644.619	-0.0061
644.951	-0.004
645.283	-0.0086
645.616	-0.0074
645.948	-0.0076
646.28	-0.0034
646.612	-0.0052
646.944	-0.0059
647.276	-0.0087
647.608	-0.0091
647.94	-0.0097
648.272	-0.0113
648.603	-0.0125
648.935	-0.01
649.267	-0.0093
649.598	-0.0078
649.93	-0.0121
650.261	-0.011
650.593	-0.0103
650.924	-0.0026
651.256	-0.0046
651.587	-0.0055
651.918	-0.0111
652.25	-0.0098
652.581	-0.0104
652.912	-0.0089
653.243	-0.0092
653.574	-0.0093
653.905	-0.0102
654.236	-0.0119
654.567	-0.0088
654.897	-0.0075
655.228	-0.004
655.559	-0.0036
655.89	-0.0055
656.22	-0.0074
656.551	-0.0095
656.881	-0.0075
657.212	-0.0058
657.542	-0.0023
657.872	-0.005
658.203	-0.0078
658.533	0.003
658.863	0.0122
659.193	-0.0045
659.523	-0.0097
659.853	-0.0266
660.183	-0.0146
660.513	-0.0119
660.843	-0.0059
661.173	-0.0107
661.503	-0.0114
661.833	-0.0162
662.162	-0.014
662.492	-0.0107
662.822	-0.0063
663.151	-0.0074
663.481	-0.0094
663.81	-0.0121
664.139	-0.0095
664.469	-0.0091
664.798	-0.0091
665.127	-0.0089
665.456	-0.0124
665.785	-0.0077
666.114	-0.0037
666.443	0.0007
666.772	-0.0022
667.101	-0.0055
667.43	-0.0064
667.759	-0.0069
668.088	-0.0117
668.416	-0.0122
668.745	-0.013
669.074	-0.0103
669.402	-0.0103
669.731	-0.0092
670.059	-0.0061
670.388	-0.0067
670.716	-0.0022
671.044	-0.0055
671.372	-0.0028
671.701	-0.0035
672.029	-0.0048
672.357	-0.0055
672.685	-0.0086
673.013	-0.009
673.341	-0.0116
673.669	-0.0083
673.996	-0.0063
674.324	-0.0005
674.652	-0.0043
674.98	-0.0067
675.307	-0.0166
675.635	-0.0177
675.962	-0.0098
676.29	-0.002
676.617	-0.0036
676.945	-0.0115
677.272	-0.0159
677.599	-0.0171
677.926	-0.0135
678.253	-0.0128
678.581	-0.0085
678.908	-0.0159
679.235	-0.0147
679.561	-0.0144
679.888	-0.0143
680.215	-0.0117
680.542	-0.0092
680.869	-0.0066
681.195	-0.0098
681.522	-0.0101
681.849	-0.0113
682.175	-0.0085
682.502	-0.0133
682.828	-0.0116
683.154	-0.0105
683.481	-0.0078
683.807	-0.0082
684.133	-0.0116
684.459	-0.0086
684.785	-0.0047
685.111	-0.0024
685.437	-0.0068
685.763	-0.0101
686.089	-0.0137
686.415	-0.0126
686.741	-0.0072
687.067	-0.0018
687.392	-0.0006
687.718	-0.0032
688.043	-0.0073
688.369	-0.0063
688.694	-0.0063
689.02	-0.007
689.345	-0.0059
689.67	-0.0069
689.996	-0.0045
690.321	-0.0058
690.646	-0.0041
690.971	-0.0021
691.296	-0.0072
691.621	-0.01
691.946	-0.009
692.271	-0.0065
692.596	-0.0028
692.921	-0.0064
693.245	-0.0045
693.57	-0.0089
693.895	-0.0103
694.219	-0.0113
694.544	-0.0091
694.868	-0.0073
695.193	-0.006
695.517	-0.0032
695.841	-0.0058
696.166	-0.0069
696.49	-0.0117
696.814	-0.0088
697.138	-0.0102
697.462	-0.009
697.786	-0.0134
698.11	-0.0103
698.434	-0.0065
698.758	-0.0091
699.081	-0.0119
699.405	-0.0171
699.729	-0.0068
700.052	-0.0058
700.376	-0.0077
700.7	-0.0121
701.023	-0.0111
701.346	-0.0072
701.67	-0.0039
701.993	-0.0014
702.316	-0.0023
702.639	-0.0037
702.963	-0.006
703.286	-0.0074
703.609	-0.0122
703.932	-0.0156
704.255	-0.0062
704.578	-0.0036
704.9	0
705.223	-0.0091
705.546	-0.0047
705.868	-0.0054
706.191	-0.0044
706.514	-0.0058
706.836	-0.0105
707.159	-0.0121
707.481	-0.0131
707.803	-0.0081
708.126	-0.0058
708.448	-0.0081
708.77	-0.0173
709.092	-0.0144
709.414	-0.0117
709.736	-0.0024
710.058	-0.0013
710.38	-0.0033
710.702	-0.0054
711.024	-0.0104
711.345	-0.012
711.667	-0.0146
711.989	-0.0151
712.31	-0.0132
712.632	-0.0108
712.953	-0.0046
713.275	-0.0057
713.596	-0.0034
713.917	-0.0077
714.239	-0.004
714.56	-0.002
714.881	-0.0034
715.202	-0.005
715.523	-0.0081
715.844	-0.003
716.165	-0.0059
716.486	-0.0047
716.807	-0.0058
717.128	-0.0028
717.448	-0.0014
717.769	-0.0046
718.09	-0.009
718.41	-0.012
718.731	-0.0108
719.051	-0.0092
719.372	-0.0106
719.692	-0.0116
720.012	-0.0047
720.332	-0.0016
720.653	0.0026
720.973	0.0006
721.293	0.0013
721.613	-0.0047
721.933	-0.008
722.253	-0.0062
722.573	-0.0022
722.892	0.0023
723.212	-0.0028
723.532	-0.001
723.851	-0.0048
724.171	-0.0106
724.491	-0.0147
724.81	-0.0129
725.129	-0.0086
725.449	-0.0083
725.768	-0.0112
726.087	-0.0057
726.407	-0.007
726.726	-0.0067
727.045	-0.0075
727.364	-0.0038
727.683	-0.0011
728.002	-0.0054
728.321	-0.0086
728.64	-0.0096
728.958	-0.0096
729.277	-0.0064
729.596	-0.0077
729.914	-0.0048
730.233	-0.0077
730.551	-0.0088
730.87	-0.0119
731.188	-0.0075
731.507	-0.0028
731.825	-0.0038
732.143	-0.006
732.461	-0.0092
732.779	-0.0095
733.097	-0.011
733.415	-0.0115
733.733	-0.0086
734.051	-0.0116
734.369	-0.0087
734.687	-0.0051
735.005	-0.0041
735.322	-0.0094
735.64	-0.0147
735.957	-0.0143
736.275	-0.0153
736.592	-0.0156
736.91	-0.0091
737.227	-0.0032
737.544	-0.0011
737.862	-0.0043
738.179	-0.0061
738.496	-0.0078
738.813	-0.0078
739.13	-0.006
739.447	-0.0068
739.764	-0.0048
740.081	-0.0063
740.398	-0.01
740.714	-0.0133
741.031	-0.0141
741.348	-0.0075
741.664	-0.0025
741.981	0.0026
742.297	-0.0009
742.614	-0.0059
742.93	-0.011
743.246	-0.0128
743.563	-0.013
743.879	-0.0157
744.195	-0.0132
744.511	-0.0074
744.827	-0.0016
745.143	-0.0062
745.459	-0.0059
745.775	-0.0078
746.091	-0.0033
746.406	-0.0063
746.722	-0.0064
747.038	-0.006
747.353	-0.0051
747.669	-0.0117
747.984	-0.0085
748.3	-0.0095
748.615	-0.0039
748.93	-0.0078
749.246	-0.0112
749.561	-0.0078
749.876	-0.0084
750.191	-0.0024
750.506	-0.0056
750.821	-0.0035
751.136	-0.0063
751.451	-0.011
751.766	-0.0159
752.08	-0.0136
752.395	-0.005
752.71	-0.0052
753.024	-0.007
753.339	-0.0101
753.653	-0.0085
753.968	-0.0109
754.282	-0.0152
754.596	-0.0122
754.911	-0.0121
755.225	-0.0113
755.539	-0.0141
755.853	-0.0107
756.167	-0.0114
756.481	-0.0076
756.795	-0.0054
757.109	-0.0036
757.423	-0.0073
757.736	-0.0084
758.05	-0.0134
758.364	-0.0088
758.677	-0.0097
758.991	-0.0052
759.304	-0.0098
759.618	-0.012
759.931	-0.0138
760.244	-0.0114
760.558	-0.0095
760.871	-0.0103
761.184	-0.017
761.497	-0.0226
761.81	-0.0204
762.123	-0.0113
762.436	-0.0092
762.749	-0.0064
763.062	-0.0077
763.374	-0.0058
763.687	-0.005
764	-0.0047
764.312	-0.0039
764.625	-0.0098
764.937	-0.0126
765.25	-0.0128
765.562	-0.0068
765.874	-0.0008
766.186	-0.0037
766.499	-0.0077
766.811	-0.0115
767.123	-0.0094
767.435	-0.0072
767.747	-0.005
768.059	-0.0065
768.37	-0.0054
768.682	-0.0077
768.994	-0.0122
769.306	-0.016
769.617	-0.0197
769.929	-0.0119
770.24	-0.01
770.552	-0.0065
770.863	-0.01
771.174	-0.0099
771.486	-0.0089
771.797	-0.0083
772.108	-0.009
772.419	-0.0126
772.73	-0.0133
773.041	-0.0127
773.352	-0.0118
773.663	-0.011
773.974	-0.0064
774.285	-0.0084
774.595	-0.0116
774.906	-0.0162
775.217	-0.015
775.527	-0.0134
775.838	-0.0136
776.148	-0.0139
776.458	-0.0146
776.769	-0.0162
777.079	-0.0112
777.389	-0.0095
777.699	-0.0094
778.009	-0.0127
778.319	-0.0082
778.629	-0.0056
778.939	-0.0088
779.249	-0.0089
779.559	-0.01
779.869	-0.014
780.178	-0.0171
780.488	-0.0158
780.798	-0.0066
781.107	-0.0054
781.417	-0.0036
781.726	-0.0074
782.035	-0.0068
782.345	-0.0135
782.654	-0.0099
782.963	-0.0123
783.272	-0.0087
783.581	-0.008
783.89	-0.0037
784.199	-0.0025
784.508	-0.0069
784.817	-0.0155
785.126	-0.015
785.434	-0.0131
785.743	-0.0086
786.052	-0.012
786.36	-0.0116
786.669	-0.0105
786.977	-0.0126
787.285	-0.0147
787.594	-0.0136
787.902	-0.0088
788.21	-0.0089
788.518	-0.0132
788.826	-0.0162
789.135	-0.0166
789.442	-0.0199
789.75	-0.0202
790.058	-0.0162
790.366	-0.0096
790.674	-0.0075
790.981	-0.0052
791.289	-0.0031
791.597	-0.0008
791.904	-0.0067
792.212	-0.0121
792.519	-0.0202
792.826	-0.0168
793.134	-0.0126
793.441	-0.0069
793.748	-0.0089
794.055	-0.0089
794.362	-0.0149
794.669	-0.0134
794.976	-0.0124
795.283	-0.0046
795.59	-0.0075
795.897	-0.0097
796.203	-0.0101
796.51	-0.0028
796.817	0.0029
797.123	-0.0043
797.43	-0.0106
797.736	-0.0176
798.042	-0.0175
798.349	-0.0192
798.655	-0.015
798.961	-0.0087
799.267	-0.0042
799.573	-0.0044
799.879	-0.0087
800.185	-0.0101
800.491	-0.0113
800.797	-0.0093
801.103	-0.0111
801.408	-0.0118
801.714	-0.0086
802.02	-0.0064
802.325	-0.0043
802.631	-0.0089
802.936	-0.0131
803.242	-0.009
803.547	-0.009
803.852	-0.0035
804.157	-0.0081
804.462	-0.0078
804.768	-0.008
805.073	-0.0117
805.378	-0.0121
805.682	-0.0083
805.987	-0.0053
806.292	-0.01
806.597	-0.0177
806.902	-0.0186
807.206	-0.0272
807.511	-0.0216
807.815	-0.0157
808.12	-0.0062
808.424	-0.008
808.728	-0.0204
809.033	-0.0134
809.337	-0.017
809.641	-0.0149
809.945	-0.0144
810.249	-0.0134
810.553	-0.0128
810.857	-0.0187
811.161	-0.0211
811.465	-0.0164
811.768	-0.0114
812.072	-0.0067
812.376	-0.0049
812.679	-0.0098
812.983	-0.0061
813.286	-0.0114
813.59	-0.005
813.893	-0.0047
814.196	-0.005
814.499	-0.0073
814.803	-0.0125
815.106	-0.0083
815.409	-0.0053
815.712	-0.004
816.015	-0.0075
816.318	-0.0056
816.62	-0.0072
816.923	-0.0089
817.226	-0.0162
817.528	-0.0167
817.831	-0.0139
818.133	-0.013
818.436	-0.0113
818.738	-0.0139
819.041	-0.0183
819.343	-0.0211
819.645	-0.0215
819.947	-0.013
820.249	-0.0105
820.551	-0.0076
820.853	-0.0158
821.155	-0.0157
821.457	-0.0202
821.759	-0.0149
822.061	-0.0117
822.362	-0.0127
822.664	-0.0099
822.966	-0.0153
823.267	-0.0051
823.569	-0.0097
823.87	-0.0063
824.171	-0.015
824.473	-0.0142
824.774	-0.009
825.075	-0.0006
825.376	0.0041
825.677	-0.0048
825.978	-0.0131
826.279	-0.0177
826.58	-0.0203
826.881	-0.0144
827.181	-0.0156
827.482	-0.016
827.783	-0.0237
828.083	-0.0187
828.384	-0.0095
828.684	-0.004
828.985	-0.0069
829.285	-0.0098
829.585	-0.0133
829.885	-0.0092
830.185	-0.0101
830.486	-0.0093
830.786	-0.0136
831.086	-0.011
831.385	-0.0075
831.685	-0.003
831.985	-0.0027
832.285	-0.0031
832.585	-0.0042
832.884	-0.0013
833.184	-0.0076
833.483	-0.0025
833.783	-0.0128
834.082	-0.0117
834.381	-0.0275
834.681	-0.0258
834.98	-0.0187
835.279	-0.013
835.578	-0.0127
835.877	-0.0233
836.176	-0.0247
836.475	-0.0169
836.774	-0.0113
837.072	-0.0141
837.371	-0.0159
837.67	-0.0068
837.968	-0.0092
838.267	-0.0092
838.565	-0.0241
838.864	-0.0201
839.162	-0.0298
839.46	-0.0268
839.759	-0.0277
840.057	-0.0189
840.355	-0.0148
840.653	-0.0072
840.951	-0.017
841.249	-0.0075
841.547	-0.0058
841.845	-0.0021
842.142	-0.0006
842.44	0.0026
842.738	0.014
843.035	-0.016
843.333	-0.0376
843.63	-0.0441
843.928	-0.0152
844.225	0.0006
844.522	-0.002
844.82	-0.0168
845.117	-0.0162
845.414	-0.028
845.711	-0.0254
846.008	-0.0309
846.305	-0.0203
846.602	-0.0219
846.898	-0.0205
847.195	-0.035
847.492	-0.0331
847.788	-0.041
848.085	-0.0295
848.382	-0.024
848.678	-0.0224
848.974	-0.0152
849.271	-0.0266
849.567	-0.0136
849.863	-0.0155
850.159	-0.0268
850.455	-0.0261
850.751	-0.0248
851.047	-0.0097
851.343	-0.0277
851.639	-0.036
851.935	-0.017
852.23	-0.0018
852.526	-0.0058
852.822	-0.0289
853.117	-0.0379
853.413	-0.0436
853.708	-0.0424
854.003	-0.045
854.299	-0.0262
854.594	-0.0211
854.889	0.0048
855.184	-0.0096
855.479	-0.0067
855.774	-0.0238
856.069	-0.0167
856.364	-0.0215
856.659	-0.0233
856.954	-0.0317
857.248	-0.0436
857.543	-0.0359
857.837	-0.0314
858.132	-0.0182
858.426	-0.0261
858.721	-0.0236
859.015	-0.0374
859.309	-0.0307
859.604	-0.0212
859.898	-0.0024
860.192	-0.0264
860.486	-0.0242
860.78	-0.0161
861.074	0.0103
861.367	-0.0121
861.661	-0.0216
861.955	-0.0137
862.248	0.0064
862.542	0.0093
862.836	-0.006
863.129	-0.0077
863.422	-0.0535
863.716	-0.0398
864.009	-0.0397
864.302	-0.0131
864.595	-0.0296
864.889	-0.0256
865.182	-0.0106
865.475	0.0059
865.767	-0.0135
866.06	-0.0087
866.353	-0.0341
866.646	-0.0244
866.938	-0.0489
867.231	-0.0227
867.524	-0.0202
867.816	-0.0203
868.109	-0.0421
868.401	-0.0444
868.693	-0.039
868.985	-0.0123
869.278	-0.0068
869.57	-0.0216
869.862	-0.0379
870.154	-0.0551
870.446	-0.0373
870.738	-0.0356
871.029	-0.0173
871.321	-0.019
871.613	-0.0311
871.904	-0.0464
872.196	-0.0467
872.487	-0.0499
872.779	-0.0455
873.07	-0.0163
873.362	-0.0175
873.653	-0.0304
873.944	-0.0796
874.235	-0.0384
874.526	-0.0098
874.817	0.0008
875.108	-0.0247
875.399	-0.0389
875.69	-0.0566
875.981	-0.0522
876.271	-0.056
876.562	-0.0482
876.853	-0.0304
877.143	-0.0127
877.434	-0.0129
877.724	-0.0351
878.014	-0.0563
878.305	-0.0146
878.595	-0.009
878.885	0.0048
879.175	0.008
879.465	0.0148
879.755	0.0214
880.045	-0.0087
880.335	-0.0305
880.624	-0.0528
880.914	-0.0528
