Data from 32SS03FU_072917_1a_Absorbance_17-00-20-298.txt Node
Date: Wed Aug 02 17:00:20 MDT 2017
User: Tank Lab
Spectrometer: FLMS01220
Trigger mode: 0
Integration Time (sec): 1.000000E-1
Scans to average: 10
Electric dark correction enabled: true
Nonlinearity correction enabled: false
Boxcar width: 1
XAxis mode: Wavelengths
Number of Pixels in Spectrum: 2048
>>>>>Begin Spectral Data<<<<<
179.47	-0.3956
179.856	-0.3956
180.241	-0
180.626	-0
181.011	0.0895
181.396	-0
181.781	-0.8191
182.166	-0
182.551	-0
182.936	-0
183.321	-0
183.706	0.0485
184.091	0.7825
184.476	-0
184.86	0.494
185.245	-0.1304
185.63	-0
186.015	-0
186.399	-0
186.784	-1.0866
187.169	-0
187.553	-0
187.938	-0.1553
188.322	-0.0346
188.707	0.0248
189.091	0.0346
189.475	0.0339
189.86	0.0379
190.244	0.0425
190.629	0.0672
191.013	0.1012
191.397	0.1634
191.781	0.2245
192.165	0.2678
192.55	0.2921
192.934	0.3017
193.318	0.3316
193.702	0.3414
194.086	0.3711
194.47	0.3469
194.854	0.3378
195.238	0.3239
195.622	0.3219
196.006	0.3222
196.389	0.3108
196.773	0.3082
197.157	0.2997
197.541	0.2862
197.924	0.2621
198.308	0.2394
198.692	0.2287
199.075	0.2204
199.459	0.2144
199.843	0.1975
200.226	0.1875
200.61	0.1733
200.993	0.1667
201.376	0.1592
201.76	0.1579
202.143	0.1564
202.527	0.1518
202.91	0.1487
203.293	0.1419
203.676	0.1414
204.059	0.1307
204.443	0.1248
204.826	0.1163
205.209	0.1162
205.592	0.1177
205.975	0.1165
206.358	0.1138
206.741	0.1106
207.124	0.1105
207.507	0.1108
207.89	0.1084
208.273	0.1035
208.655	0.1024
209.038	0.1038
209.421	0.1048
209.804	0.102
210.186	0.0997
210.569	0.0989
210.951	0.0995
211.334	0.0999
211.717	0.0978
212.099	0.0927
212.482	0.0894
212.864	0.0908
213.246	0.0924
213.629	0.0909
214.011	0.0886
214.393	0.0847
214.776	0.0842
215.158	0.082
215.54	0.0838
215.922	0.081
216.305	0.0802
216.687	0.0774
217.069	0.0781
217.451	0.0768
217.833	0.076
218.215	0.0742
218.597	0.0753
218.979	0.0746
219.361	0.0723
219.742	0.067
220.124	0.0641
220.506	0.0618
220.888	0.0606
221.27	0.0602
221.651	0.0594
222.033	0.0598
222.415	0.0579
222.796	0.0565
223.178	0.0532
223.559	0.051
223.941	0.05
224.322	0.0484
224.704	0.0476
225.085	0.0463
225.466	0.0462
225.848	0.0444
226.229	0.0429
226.61	0.0408
226.992	0.0399
227.373	0.0382
227.754	0.0355
228.135	0.0334
228.516	0.0323
228.897	0.0337
229.278	0.0326
229.659	0.0313
230.04	0.029
230.421	0.0283
230.802	0.0285
231.183	0.0284
231.564	0.0281
231.944	0.0267
232.325	0.026
232.706	0.0254
233.087	0.0256
233.467	0.0244
233.848	0.0243
234.229	0.0229
234.609	0.0224
234.99	0.0217
235.37	0.0215
235.751	0.0212
236.131	0.0202
236.511	0.0194
236.892	0.021
237.272	0.0199
237.652	0.0196
238.033	0.0181
238.413	0.019
238.793	0.0191
239.173	0.0185
239.553	0.0172
239.933	0.017
240.313	0.0174
240.694	0.0187
241.074	0.0175
241.453	0.0164
241.833	0.0177
242.213	0.0188
242.593	0.0175
242.973	0.0146
243.353	0.0141
243.732	0.0154
244.112	0.0146
244.492	0.0135
244.872	0.0129
245.251	0.0148
245.631	0.0148
246.01	0.0147
246.39	0.0145
246.769	0.0148
247.149	0.0156
247.528	0.0151
247.908	0.0147
248.287	0.014
248.666	0.013
249.045	0.013
249.425	0.0122
249.804	0.0135
250.183	0.0132
250.562	0.0141
250.941	0.0154
251.32	0.0158
251.699	0.0151
252.078	0.0134
252.457	0.0132
252.836	0.0139
253.215	0.0124
253.594	0.0128
253.973	0.0105
254.352	0.0108
254.731	0.0101
255.109	0.012
255.488	0.0124
255.867	0.0122
256.245	0.0117
256.624	0.012
257.002	0.0128
257.381	0.014
257.759	0.0142
258.138	0.0136
258.516	0.0118
258.895	0.0117
259.273	0.0115
259.651	0.0138
260.03	0.0128
260.408	0.0133
260.786	0.011
261.164	0.0107
261.542	0.0093
261.921	0.0102
262.299	0.0109
262.677	0.0115
263.055	0.0111
263.433	0.0116
263.811	0.0115
264.188	0.0113
264.566	0.0107
264.944	0.0101
265.322	0.0108
265.7	0.0121
266.077	0.0129
266.455	0.0109
266.833	0.0084
267.21	0.0084
267.588	0.01
267.966	0.0107
268.343	0.0111
268.721	0.0103
269.098	0.0109
269.475	0.0091
269.853	0.01
270.23	0.0086
270.607	0.0096
270.985	0.0091
271.362	0.0109
271.739	0.0094
272.116	0.0088
272.494	0.0082
272.871	0.0095
273.248	0.0094
273.625	0.0099
274.002	0.0102
274.379	0.0116
274.756	0.0094
275.132	0.0088
275.509	0.0071
275.886	0.0075
276.263	0.0092
276.64	0.0098
277.016	0.0115
277.393	0.0104
277.77	0.0105
278.146	0.0098
278.523	0.0095
278.899	0.0092
279.276	0.009
279.652	0.0092
280.029	0.0091
280.405	0.0095
280.782	0.0079
281.158	0.0082
281.534	0.0075
281.91	0.0099
282.287	0.0095
282.663	0.0098
283.039	0.0084
283.415	0.0087
283.791	0.0082
284.167	0.0083
284.543	0.0086
284.919	0.0072
285.295	0.0069
285.671	0.006
286.047	0.0068
286.423	0.007
286.799	0.0083
287.174	0.01
287.55	0.0081
287.926	0.0087
288.301	0.0083
288.677	0.0101
289.053	0.0092
289.428	0.0095
289.804	0.0092
290.179	0.0065
290.555	0.0059
290.93	0.0064
291.305	0.0084
291.681	0.0068
292.056	0.0057
292.431	0.0052
292.806	0.006
293.182	0.0069
293.557	0.0087
293.932	0.01
294.307	0.0081
294.682	0.0069
295.057	0.007
295.432	0.0096
295.807	0.0086
296.182	0.0078
296.557	0.0065
296.932	0.0063
297.306	0.0061
297.681	0.0065
298.056	0.0071
298.43	0.007
298.805	0.007
299.18	0.0061
299.554	0.0062
299.929	0.0057
300.303	0.0071
300.678	0.0066
301.052	0.0069
301.427	0.0066
301.801	0.0074
302.175	0.0061
302.55	0.0055
302.924	0.0046
303.298	0.0062
303.672	0.007
304.046	0.007
304.421	0.0071
304.795	0.0073
305.169	0.0075
305.543	0.0078
305.917	0.0079
306.291	0.0072
306.664	0.007
307.038	0.0061
307.412	0.0051
307.786	0.0048
308.16	0.0045
308.533	0.0055
308.907	0.0061
309.281	0.0055
309.654	0.0076
310.028	0.0064
310.401	0.0067
310.775	0.0056
311.148	0.0049
311.522	0.0059
311.895	0.0067
312.268	0.0063
312.642	0.0058
313.015	0.0038
313.388	0.0074
313.761	0.0061
314.135	0.0065
314.508	0.0034
314.881	0.0044
315.254	0.0051
315.627	0.006
316	0.0046
316.373	0.0053
316.746	0.005
317.118	0.0056
317.491	0.0045
317.864	0.0058
318.237	0.0068
318.61	0.006
318.982	0.0053
319.355	0.0063
319.727	0.0079
320.1	0.0075
320.473	0.0073
320.845	0.0061
321.218	0.006
321.59	0.005
321.962	0.0047
322.335	0.0044
322.707	0.0041
323.079	0.004
323.452	0.0042
323.824	0.0036
324.196	0.0034
324.568	0.0016
324.94	0.0012
325.312	0.0016
325.684	0.0028
326.056	0.005
326.428	0.006
326.8	0.0063
327.172	0.0054
327.544	0.0031
327.915	0.0034
328.287	0.0027
328.659	0.0033
329.031	0.0023
329.402	0.0028
329.774	0.0025
330.145	0.0025
330.517	0.0009
330.888	0.0013
331.26	0.0025
331.631	0.0034
332.003	0.0038
332.374	0.0031
332.745	0.0031
333.117	0.0019
333.488	0.002
333.859	0.0019
334.23	0.0034
334.601	0.0041
334.972	0.0046
335.343	0.0045
335.714	0.0034
336.085	0.0027
336.456	0.0021
336.827	0.0027
337.198	0.0037
337.569	0.0021
337.94	0.001
338.31	0.0004
338.681	0.0021
339.052	0.0027
339.422	0.0031
339.793	0.004
340.164	0.0044
340.534	0.004
340.905	0.0028
341.275	0.0041
341.645	0.0053
342.016	0.0051
342.386	0.0038
342.756	0.0022
343.127	0.0017
343.497	0.0017
343.867	0.0015
344.237	0.0019
344.607	0.002
344.977	0.0037
345.347	0.0035
345.717	0.0032
346.087	0.0017
346.457	0.0007
346.827	0.0003
347.197	0.0002
347.567	0.0028
347.936	0.0034
348.306	0.0026
348.676	0.0009
349.046	-0.0003
349.415	0.001
349.785	0.0003
350.154	0.0009
350.524	0.0014
350.893	0.0007
351.263	0.0002
351.632	0.0001
352.001	0.0025
352.371	0.0035
352.74	0.0036
353.109	0.0021
353.478	0.0019
353.847	0.0006
354.217	0.0014
354.586	0.002
354.955	0.0035
355.324	0.0038
355.693	0.0034
356.062	0.003
356.43	0.0025
356.799	0.0027
357.168	0.0016
357.537	0.0018
357.906	0.0019
358.274	0.0029
358.643	0.0024
359.011	0.0013
359.38	0.0013
359.749	0.0017
360.117	0.0017
360.486	0.0023
360.854	0.0032
361.222	0.0041
361.591	0.0026
361.959	0.0008
362.327	0.0006
362.695	0.0012
363.064	-0.0004
363.432	0.0004
363.8	0.0002
364.168	0.0027
364.536	0.0017
364.904	0.0025
365.272	0.0006
365.64	0.0002
366.008	-0.0012
366.376	0.0002
366.743	-0.0003
367.111	-0.0004
367.479	0.0003
367.847	0.0003
368.214	0.0003
368.582	0.0007
368.949	-0.0001
369.317	0.0023
369.684	0.002
370.052	0.0019
370.419	-0
370.787	0
371.154	0.0002
371.521	0.0016
371.889	0.0008
372.256	-0.0001
372.623	-0.0024
372.99	-0.0031
373.357	-0.0036
373.724	-0.002
374.091	-0.001
374.458	0.0014
374.825	-0.0015
375.192	-0.0001
375.559	-0.0003
375.926	0.0014
376.293	-0.0012
376.659	-0.0027
377.026	-0.0024
377.393	-0.0004
377.759	0.0011
378.126	0.0015
378.492	-0.0002
378.859	-0.0015
379.225	-0.0029
379.592	-0.0024
379.958	-0.0013
380.325	-0.0014
380.691	-0.0011
381.057	-0.0032
381.423	-0.0021
381.79	-0.0027
382.156	-0.0026
382.522	-0.0016
382.888	-0.0017
383.254	-0.0003
383.62	-0.0008
383.986	0.0004
384.352	0
384.718	-0.0006
385.084	-0.0025
385.449	-0.0024
385.815	-0.0032
386.181	-0.0022
386.547	-0.002
386.912	-0.0036
387.278	-0.0019
387.643	-0.0006
388.009	0.0037
388.374	0.0002
388.74	0.0001
389.105	-0.0027
389.471	-0.0003
389.836	0.0003
390.201	0.0033
390.566	0.0054
390.932	0.006
391.297	0.0033
391.662	-0.0005
392.027	-0.0025
392.392	-0.002
392.757	-0.0004
393.122	0
393.487	0.0024
393.852	0.0021
394.217	0.0024
394.582	0.0015
394.946	0.0034
395.311	0.0031
395.676	0.0024
396.04	-0.0017
396.405	-0.0039
396.77	-0.0059
397.134	-0.0042
397.499	-0.0017
397.863	0
398.227	0.0011
398.592	0
398.956	-0.0018
399.32	-0.0018
399.685	-0.0015
400.049	0.0003
400.413	0.0004
400.777	0.0013
401.141	0.0001
401.505	-0.0012
401.869	-0.0027
402.233	-0.0025
402.597	-0.0014
402.961	0.0008
403.325	0.0015
403.689	0.0023
404.053	0.002
404.416	0.0034
404.78	0.0022
405.144	0.0034
405.507	0.0023
405.871	0.0022
406.234	-0.0001
406.598	0.0016
406.961	0.001
407.325	-0.0011
407.688	-0.0007
408.051	0.0008
408.415	0.0031
408.778	0.0001
409.141	-0.0015
409.504	-0.0013
409.867	0.0002
410.23	0.0012
410.593	0.0001
410.956	-0.0007
411.319	-0.0029
411.682	-0.0024
412.045	-0.0032
412.408	-0.0027
412.771	-0.0019
413.134	-0.0015
413.496	-0.0014
413.859	-0.0016
414.222	-0.0003
414.584	0.0021
414.947	-0.0001
415.309	-0.0004
415.672	-0.002
416.034	-0.0011
416.396	-0.001
416.759	-0.0012
417.121	-0.0011
417.483	-0.0008
417.846	0.0001
418.208	-0.0003
418.57	-0.0019
418.932	-0.0031
419.294	-0.0027
419.656	-0.0004
420.018	-0.0007
420.38	0
420.742	-0.0016
421.104	0.0013
421.466	0.0032
421.827	0.0069
422.189	0.0033
422.551	0.0012
422.912	-0.0025
423.274	0.0004
423.636	-0.0003
423.997	0.0004
424.359	-0.0013
424.72	-0.0022
425.081	-0.0003
425.443	-0.0013
425.804	-0.0012
426.165	-0.0036
426.527	0.0005
426.888	0.001
427.249	0.0021
427.61	0.0002
427.971	0.0006
428.332	-0.0012
428.693	-0.0017
429.054	-0.0007
429.415	-0.0014
429.776	0.0001
430.137	-0.001
430.498	0.0006
430.858	-0.0006
431.219	0.002
431.58	0.0033
431.94	0.0036
432.301	0.0018
432.661	-0.0007
433.022	-0.0015
433.382	-0.0013
433.743	0.0013
434.103	0.0013
434.463	0.0008
434.824	-0.0009
435.184	-0.0011
435.544	-0.0023
435.904	-0.0029
436.264	-0.0047
436.624	-0.0008
436.985	-0.0006
437.345	-0.0007
437.704	-0.0049
438.064	-0.0061
438.424	-0.0029
438.784	-0.0004
439.144	0.0022
439.504	0.0024
439.863	0.0006
440.223	-0.0016
440.583	-0.0029
440.942	-0.0028
441.302	0.0003
441.661	0.0006
442.021	-0
442.38	-0.0012
442.739	-0.0015
443.099	0.0021
443.458	0.0025
443.817	0.0024
444.176	0.0006
444.536	-0.0002
444.895	-0.0006
445.254	-0.0001
445.613	0.0024
445.972	0.0019
446.331	-0.0004
446.69	-0.0027
447.049	-0.0021
447.407	-0.0025
447.766	-0.0041
448.125	-0.002
448.484	-0.0011
448.842	0.0008
449.201	-0.0005
449.559	0.001
449.918	-0.0016
450.276	-0.0016
450.635	-0.0018
450.993	0.0012
451.352	-0.0005
451.71	-0.0001
452.068	-0.0019
452.426	0.0015
452.785	0.003
453.143	0.0044
453.501	0.0006
453.859	-0.0026
454.217	-0.0042
454.575	-0.0031
454.933	-0.0035
455.291	-0.0022
455.649	-0.0009
456.006	-0.0017
456.364	-0.0016
456.722	-0.0028
457.079	0.0006
457.437	0.0022
457.795	0.0012
458.152	0.0012
458.51	-0.0007
458.867	0.0018
459.225	0.0009
459.582	0.0002
459.939	-0.0024
460.297	-0.0039
460.654	-0.0062
461.011	-0.0069
461.368	-0.0077
461.725	-0.0045
462.082	-0.0035
462.44	-0.0013
462.797	-0.0028
463.153	-0.0002
463.51	0.0009
463.867	0.0018
464.224	0.0003
464.581	-0.0002
464.938	0.0008
465.294	-0.0002
465.651	0.0016
466.008	0.0038
466.364	0.007
466.721	0.0061
467.077	0.0038
467.434	0.0021
467.79	0.0021
468.146	0.0018
468.503	0.0028
468.859	-0.001
469.215	-0.0023
469.571	-0.0041
469.927	0.0001
470.284	-0.001
470.64	-0.0002
470.996	-0.0016
471.352	0.0026
471.707	0.0009
472.063	-0.0009
472.419	-0.001
472.775	-0.0002
473.131	-0.0001
473.486	-0.0034
473.842	-0.0035
474.198	-0.0019
474.553	-0.0012
474.909	0.0007
475.264	0
475.62	-0.0029
475.975	-0.0046
476.331	-0.0056
476.686	-0.001
477.041	0.0017
477.396	0.0034
477.752	0.0041
478.107	0.003
478.462	0.0023
478.817	-0.0011
479.172	-0.0055
479.527	-0.0056
479.882	-0.0055
480.237	-0.0009
480.591	-0.0003
480.946	0.0024
481.301	0.0008
481.656	0.0022
482.01	0.0012
482.365	0.002
482.72	0.0018
483.074	0.0028
483.429	0.0016
483.783	0.0003
484.137	-0.0024
484.492	-0.0013
484.846	-0.0003
485.2	0.0004
485.555	-0.0013
485.909	-0.001
486.263	-0.0007
486.617	-0.0003
486.971	-0.0023
487.325	-0.0015
487.679	-0.0019
488.033	-0.0027
488.387	-0.0042
488.741	-0.0018
489.094	-0.0024
489.448	-0.0022
489.802	-0.003
490.156	-0.0027
490.509	-0.0027
490.863	-0.0044
491.216	-0.003
491.57	-0.0049
491.923	-0.0038
492.277	-0.0046
492.63	-0.0056
492.983	-0.0063
493.337	-0.0042
493.69	-0.0004
494.043	-0.0012
494.396	-0.0003
494.749	-0.0013
495.102	-0.0001
495.455	-0.0014
495.808	-0.002
496.161	0.0004
496.514	-0
496.867	0.0006
497.22	-0.0007
497.572	-0.0016
497.925	-0.0016
498.278	-0.0016
498.63	-0.0022
498.983	-0.0007
499.335	0.0009
499.688	0.0002
500.04	-0.0019
500.393	-0.0027
500.745	-0.0031
501.097	-0.003
501.449	-0.0047
501.802	-0.0031
502.154	-0.0011
502.506	-0.0005
502.858	-0.001
503.21	-0.001
503.562	-0.0019
503.914	0.0007
504.266	-0.0014
504.618	-0.0034
504.969	-0.0041
505.321	-0.0026
505.673	-0.0009
506.025	-0.0029
506.376	-0.0031
506.728	-0.0045
507.079	-0.0034
507.431	-0.005
507.782	-0.0017
508.134	-0.0024
508.485	-0.0033
508.836	-0.004
509.188	-0.0035
509.539	-0.0006
509.89	-0.0015
510.241	-0.0027
510.592	-0.0028
510.943	-0.0013
511.294	-0.0007
511.645	-0.0006
511.996	-0.0038
512.347	-0.0039
512.698	-0.0043
513.049	-0.0044
513.399	-0.0035
513.75	-0.006
514.101	-0.0032
514.451	-0.002
514.802	-0.0023
515.152	-0.0044
515.503	-0.0045
515.853	0.0005
516.203	0.0018
516.554	0.004
516.904	0.0008
517.254	0.0002
517.604	-0.004
517.955	-0.0049
518.305	-0.0051
518.655	-0.0063
519.005	-0.0069
519.355	-0.0057
519.705	-0.0026
520.055	-0.0002
520.404	-0.0028
520.754	-0.0057
521.104	-0.007
521.454	-0.0062
521.803	-0.0037
522.153	-0.0025
522.502	-0.0038
522.852	-0.0073
523.201	-0.0087
523.551	-0.0052
523.9	-0.001
524.249	0.0016
524.599	-0.0002
524.948	-0.0026
525.297	-0.0048
525.646	-0.0019
525.995	-0.003
526.344	-0.002
526.694	-0.0056
527.042	-0.0035
527.391	-0.0038
527.74	-0.0037
528.089	-0.0048
528.438	-0.0036
528.787	-0.001
529.135	0.0007
529.484	-0.0024
529.833	-0.0021
530.181	-0.0032
530.53	-0.0022
530.878	-0.0044
531.227	-0.0031
531.575	-0.0019
531.923	-0.0006
532.271	-0.0013
532.62	-0.0041
532.968	-0.0011
533.316	0
533.664	0.001
534.012	-0.0021
534.36	-0.0055
534.708	-0.0036
535.056	-0.0022
535.404	0.0011
535.752	0.0011
536.1	-0.0024
536.447	-0.0055
536.795	-0.0059
537.143	-0.0037
537.49	-0.0018
537.838	-0.002
538.185	-0.0032
538.533	-0.0047
538.88	-0.0046
539.228	-0.0031
539.575	-0.0026
539.922	-0.003
540.269	-0.0032
540.617	-0.002
540.964	-0.0031
541.311	-0.0033
541.658	-0.0039
542.005	-0.0019
542.352	-0.0071
542.699	-0.0088
543.045	-0.0105
543.392	-0.0058
543.739	-0.0068
544.086	-0.0058
544.432	-0.0067
544.779	-0.0043
545.126	-0.0044
545.472	-0.0057
545.819	-0.0064
546.165	-0.0067
546.512	-0.0041
546.858	-0.0025
547.204	-0.0029
547.55	-0.0019
547.897	-0.001
548.243	0.0002
548.589	-0.0013
548.935	-0.0048
549.281	-0.0037
549.627	-0.0039
549.973	-0.0039
550.319	-0.0053
550.665	-0.0043
551.01	-0.0015
551.356	-0.0023
551.702	-0.0031
552.048	-0.005
552.393	-0.0056
552.739	-0.0064
553.084	-0.0047
553.43	-0.0043
553.775	-0.0029
554.12	-0.0011
554.466	0.0007
554.811	0.0004
555.156	-0.0022
555.502	-0.0055
555.847	-0.0057
556.192	-0.0055
556.537	-0.0034
556.882	-0.0051
557.227	-0.0044
557.572	-0.006
557.917	-0.0028
558.261	-0.004
558.606	-0.0037
558.951	-0.0051
559.295	-0.0055
559.64	-0.0044
559.985	-0.0051
560.329	-0.0073
560.674	-0.0079
561.018	-0.0075
561.363	-0.004
561.707	-0.0057
562.051	-0.0069
562.395	-0.0056
562.74	-0.0082
563.084	-0.0069
563.428	-0.0087
563.772	-0.0016
564.116	-0.0021
564.46	-0.0032
564.804	-0.0067
565.148	-0.0069
565.492	-0.0033
565.835	0.0008
566.179	0.0002
566.523	-0.0011
566.866	-0.0047
567.21	-0.0031
567.554	-0.0057
567.897	-0.0041
568.24	-0.0071
568.584	-0.0071
568.927	-0.0077
569.271	-0.0062
569.614	-0.005
569.957	-0.0026
570.3	-0.001
570.643	0.001
570.986	-0.002
571.329	-0.0012
571.672	-0.0037
572.015	-0.0046
572.358	-0.0045
572.701	-0.0048
573.044	-0.0029
573.387	-0.0071
573.729	-0.0048
574.072	-0.0059
574.414	-0.0057
574.757	-0.0058
575.099	-0.0069
575.442	-0.0076
575.784	-0.0057
576.127	-0.0033
576.469	-0.0014
576.811	-0.0056
577.153	-0.0044
577.496	-0.004
577.838	-0.0016
578.18	-0.0059
578.522	-0.0064
578.864	-0.0079
579.206	-0.0033
579.548	-0.0029
579.889	-0.0043
580.231	-0.0053
580.573	-0.0012
580.915	-0.0019
581.256	-0.0073
581.598	-0.0094
581.939	-0.0086
582.281	-0.0003
582.622	-0.0016
582.964	-0.0025
583.305	-0.0032
583.646	-0.0047
583.988	0.0011
584.329	-0.0003
584.67	-0.004
585.011	-0.0082
585.352	-0.0114
585.693	-0.0083
586.034	-0.0089
586.375	-0.0086
586.716	-0.0057
587.057	-0.004
587.398	-0.0027
587.738	-0.0028
588.079	-0.0042
588.42	-0.0049
588.76	-0.0064
589.101	-0.006
589.441	-0.0046
589.782	-0.0034
590.122	-0.0009
590.463	-0.0008
590.803	-0.0055
591.143	-0.0062
591.483	-0.0073
591.823	-0.0059
592.164	-0.0077
592.504	-0.0047
592.844	-0.0027
593.184	-0.0037
593.523	-0.0054
593.863	-0.0054
594.203	-0.0051
594.543	-0.0022
594.883	-0.0059
595.222	-0.0042
595.562	-0.0015
595.901	-0.0022
596.241	-0.0042
596.58	-0.0102
596.92	-0.0098
597.259	-0.0106
597.599	-0.0087
597.938	-0.006
598.277	-0.0043
598.616	-0.0066
598.955	-0.005
599.295	-0.0036
599.634	-0.0009
599.973	-0.0022
600.312	-0.0063
600.65	-0.0085
600.989	-0.0119
601.328	-0.0085
601.667	0.0001
602.005	-0.0006
602.344	-0.0034
602.683	-0.0066
603.021	-0.0056
603.36	-0.0079
603.698	-0.0108
604.037	-0.0113
604.375	-0.0076
604.713	-0.0096
605.052	-0.0114
605.39	-0.0093
605.728	-0.006
606.066	0.0035
606.404	0.0019
606.742	-0.0018
607.08	-0.0048
607.418	-0.0069
607.756	-0.0043
608.094	-0.0045
608.431	-0.0049
608.769	-0.0025
609.107	-0.0042
609.444	-0.0003
609.782	-0.0033
610.12	-0.0004
610.457	-0.003
610.794	-0.0047
611.132	-0.0083
611.469	-0.0089
611.806	-0.0084
612.144	-0.0117
612.481	-0.01
612.818	-0.0062
613.155	-0.0012
613.492	-0.0032
613.829	-0.0043
614.166	-0.0033
614.503	-0.0027
614.84	-0.0075
615.176	-0.0086
615.513	-0.0046
615.85	-0.0023
616.187	-0.0022
616.523	-0.0063
616.86	-0.0057
617.196	-0.0067
617.533	-0.0039
617.869	-0.0054
618.205	-0.0057
618.542	-0.0075
618.878	-0.0092
619.214	-0.0076
619.55	-0.0067
619.886	-0.0043
620.222	-0.0076
620.558	-0.0103
620.894	-0.0129
621.23	-0.0134
621.566	-0.0121
621.902	-0.0089
622.238	-0.0098
622.573	-0.0039
622.909	-0.0044
623.244	-0.005
623.58	-0.0109
623.916	-0.0151
624.251	-0.0079
624.586	-0.0045
624.922	0.002
625.257	-0.0036
625.592	-0.0075
625.927	-0.0084
626.263	-0.0074
626.598	-0.0065
626.933	-0.0078
627.268	-0.008
627.603	-0.0063
627.938	-0.0087
628.272	-0.0058
628.607	-0.0047
628.942	-0.0048
629.277	-0.0064
629.611	-0.0101
629.946	-0.0104
630.281	-0.0148
630.615	-0.0125
630.949	-0.0097
631.284	-0.0041
631.618	-0.0029
631.953	-0.003
632.287	-0.0052
632.621	-0.0093
632.955	-0.0105
633.289	-0.0072
633.623	-0.0069
633.957	-0.004
634.291	-0.0061
634.625	-0.0054
634.959	-0.0097
635.293	-0.0079
635.627	-0.002
635.96	0.0006
636.294	0.001
636.627	-0.002
636.961	0.0005
637.294	-0.0024
637.628	-0.0048
637.961	-0.0079
638.295	-0.0061
638.628	-0.0031
638.961	-0.0018
639.294	-0.0029
639.628	-0.0035
639.961	-0.007
640.294	-0.0087
640.627	-0.0093
640.96	-0.0072
641.293	-0.0079
641.625	-0.004
641.958	-0.0049
642.291	-0.0024
642.624	-0.008
642.956	-0.0097
643.289	-0.0081
643.621	-0.003
643.954	-0.0012
644.286	-0.0046
644.619	-0.0114
644.951	-0.0126
645.283	-0.0127
645.616	-0.0093
645.948	-0.0103
646.28	-0.0092
646.612	-0.0078
646.944	0.0002
647.276	-0.0012
647.608	-0.0047
647.94	-0.0103
648.272	-0.0124
648.603	-0.0147
648.935	-0.0097
649.267	-0.0057
649.598	-0.0017
649.93	-0.0071
650.261	-0.0042
650.593	-0.0047
650.924	-0.0029
651.256	-0.0067
651.587	-0.0053
651.918	-0.0063
652.25	-0.0056
652.581	-0.0092
652.912	-0.0077
653.243	-0.0056
653.574	-0.0028
653.905	-0.0049
654.236	-0.0102
654.567	-0.008
654.897	-0.0063
655.228	-0.0028
655.559	-0.0049
655.89	-0.0046
656.22	-0.0068
656.551	-0.0077
656.881	-0.0072
657.212	-0.0051
657.542	-0.0022
657.872	-0.0094
658.203	-0.0142
658.533	-0.0032
658.863	0.0116
659.193	-0.005
659.523	-0.0099
659.853	-0.0274
660.183	-0.0167
660.513	-0.0122
660.843	-0.0081
661.173	-0.0098
661.503	-0.0098
661.833	-0.0107
662.162	-0.0093
662.492	-0.0059
662.822	-0.0014
663.151	-0.0018
663.481	-0.0074
663.81	-0.0108
664.139	-0.0057
664.469	-0.0028
664.798	-0.0035
665.127	-0.0036
665.456	-0.003
665.785	0.0027
666.114	0.0006
666.443	0.0004
666.772	-0.0012
667.101	0.0006
667.43	-0.0011
667.759	-0.003
668.088	-0.0062
668.416	-0.0092
668.745	-0.0125
669.074	-0.0102
669.402	-0.0092
669.731	-0.0084
670.059	-0.0051
670.388	-0.0064
670.716	-0.008
671.044	-0.0103
671.372	-0.0045
671.701	-0.0008
672.029	-0.0034
672.357	-0.0062
672.685	-0.0047
673.013	-0.0063
673.341	-0.0032
673.669	-0.0035
673.996	-0.0013
674.324	-0.0018
674.652	-0.0039
674.98	-0.007
675.307	-0.0119
675.635	-0.0116
675.962	-0.0054
676.29	-0.0046
676.617	-0.0062
676.945	-0.0112
677.272	-0.0098
677.599	-0.0117
677.926	-0.005
678.253	-0.0045
678.581	-0.0065
678.908	-0.0126
679.235	-0.0131
679.561	-0.0097
679.888	-0.0134
680.215	-0.0141
680.542	-0.0113
680.869	-0.0081
681.195	-0.0074
681.522	-0.0059
681.849	-0.0074
682.175	-0.0076
682.502	-0.0128
682.828	-0.0111
683.154	-0.0116
683.481	-0.0081
683.807	-0.0117
684.133	-0.0083
684.459	-0.0077
684.785	-0.0068
685.111	-0.0084
685.437	-0.0101
685.763	-0.008
686.089	-0.0127
686.415	-0.013
686.741	-0.0099
687.067	-0.0046
687.392	-0.0036
687.718	-0.0036
688.043	-0.0071
688.369	-0.0075
688.694	-0.007
689.02	-0.0058
689.345	-0.0029
689.67	-0.0047
689.996	-0.003
690.321	-0.0011
690.646	-0.0013
690.971	0.0024
691.296	-0.0046
691.621	-0.0024
691.946	-0.0052
692.271	-0.0051
692.596	-0.0023
692.921	-0.0055
693.245	-0.0051
693.57	-0.0097
693.895	-0.0098
694.219	-0.0103
694.544	-0.0119
694.868	-0.0099
695.193	-0.0075
695.517	-0.0011
695.841	-0.0056
696.166	-0.0093
696.49	-0.0128
696.814	-0.0075
697.138	-0.0049
697.462	-0.0063
697.786	-0.0098
698.11	-0.0097
698.434	-0.0043
698.758	-0.0057
699.081	-0.0055
699.405	-0.0086
699.729	-0.0043
700.052	-0.0036
700.376	-0.0086
700.7	-0.0093
701.023	-0.0141
701.346	-0.0095
701.67	-0.0101
701.993	-0.0046
702.316	-0.0067
702.639	-0.0133
702.963	-0.012
703.286	-0.0133
703.609	-0.006
703.932	-0.0077
704.255	-0.0031
704.578	-0.0074
704.9	-0.006
705.223	-0.0103
705.546	-0.0051
705.868	-0.0067
706.191	-0.0067
706.514	-0.0071
706.836	-0.0064
707.159	-0.0058
707.481	-0.0063
707.803	-0.0095
708.126	-0.0092
708.448	-0.0104
708.77	-0.0127
709.092	-0.0107
709.414	-0.01
709.736	-0.0047
710.058	-0.0018
710.38	-0.0001
710.702	0.0002
711.024	-0.0044
711.345	-0.0068
711.667	-0.0085
711.989	-0.0083
712.31	-0.0093
712.632	-0.0084
712.953	-0.0078
713.275	-0.0074
713.596	-0.0037
713.917	-0.007
714.239	-0.0051
714.56	-0.0065
714.881	-0.0018
715.202	-0.0037
715.523	-0.0096
715.844	-0.0119
716.165	-0.012
716.486	-0.0096
716.807	-0.0106
717.128	-0.013
717.448	-0.0111
717.769	-0.0071
718.09	-0.0019
718.41	-0.0037
718.731	-0.0019
719.051	-0.0023
719.372	-0.0011
719.692	-0.0022
720.012	-0.0041
720.332	-0.0082
720.653	-0.0095
720.973	-0.008
721.293	-0.0064
721.613	-0.0092
721.933	-0.0079
722.253	-0.0031
722.573	-0.0003
722.892	-0.0015
723.212	-0.0047
723.532	-0.0043
723.851	-0.0032
724.171	-0.0053
724.491	-0.0058
724.81	-0.0084
725.129	-0.009
725.449	-0.0104
725.768	-0.0124
726.087	-0.0072
726.407	-0.0111
726.726	-0.0084
727.045	-0.0086
727.364	-0.0036
727.683	-0.0066
728.002	-0.0106
728.321	-0.0128
728.64	-0.0123
728.958	-0.0124
729.277	-0.0108
729.596	-0.009
729.914	-0.0067
730.233	-0.0064
730.551	-0.0054
730.87	-0.0058
731.188	-0.0065
731.507	-0.009
731.825	-0.0109
732.143	-0.012
732.461	-0.0114
732.779	-0.01
733.097	-0.011
733.415	-0.0114
733.733	-0.0065
734.051	-0.0057
734.369	-0.0015
734.687	-0.0052
735.005	-0.0042
735.322	-0.0079
735.64	-0.0087
735.957	-0.0121
736.275	-0.0178
736.592	-0.0191
736.91	-0.012
737.227	-0.0063
737.544	-0.0019
737.862	-0.0057
738.179	-0.0016
738.496	-0.0073
738.813	-0.006
739.13	-0.0116
739.447	-0.0089
739.764	-0.0074
740.081	-0.0057
740.398	-0.0056
740.714	-0.0081
741.031	-0.0109
741.348	-0.0085
741.664	-0.0039
741.981	0.0046
742.297	-0.0006
742.614	-0.005
742.93	-0.0094
743.246	-0.0127
743.563	-0.0124
743.879	-0.0136
744.195	-0.0097
744.511	-0.0098
744.827	-0.0054
745.143	-0.0074
745.459	-0.0033
745.775	-0.0052
746.091	-0.0013
746.406	-0.0071
746.722	-0.005
747.038	-0.0051
747.353	-0.0057
747.669	-0.0126
747.984	-0.0123
748.3	-0.0065
748.615	-0.0034
748.93	-0.009
749.246	-0.0155
749.561	-0.0142
749.876	-0.007
750.191	0.0032
750.506	0.002
750.821	0.0031
751.136	-0.0046
751.451	-0.0049
751.766	-0.0075
752.08	-0.0096
752.395	-0.0068
752.71	-0.0041
753.024	-0.0011
753.339	-0.0019
753.653	-0.0074
753.968	-0.002
754.282	-0.0087
754.596	-0.0089
754.911	-0.0168
755.225	-0.0158
755.539	-0.0151
755.853	-0.0141
756.167	-0.0133
756.481	-0.0105
756.795	-0.0065
757.109	-0.0037
757.423	-0.0093
757.736	-0.0126
758.05	-0.0129
758.364	-0.0106
758.677	-0.0103
758.991	-0.0104
759.304	-0.0046
759.618	0.0009
759.931	0.0001
760.244	-0.0043
760.558	-0.0071
760.871	-0.0089
761.184	-0.0146
761.497	-0.0218
761.81	-0.0197
762.123	-0.0088
762.436	-0.0075
762.749	-0.0113
763.062	-0.0109
763.374	-0.0071
763.687	-0.0021
764	-0.0033
764.312	-0.0003
764.625	-0.0039
764.937	-0.0103
765.25	-0.0108
765.562	-0.0067
765.874	0.0026
766.186	0.0001
766.499	-0.0038
766.811	-0.0094
767.123	-0.0046
767.435	-0.0024
767.747	0.001
768.059	-0.0047
768.37	-0.0013
768.682	-0.0057
768.994	-0.0048
769.306	-0.0106
769.617	-0.0097
769.929	-0.0077
770.24	-0.0032
770.552	-0.0036
770.863	-0.007
771.174	-0.0069
771.486	-0.0093
771.797	-0.007
772.108	-0.0111
772.419	-0.0092
772.73	-0.0109
773.041	-0.0089
773.352	-0.0102
773.663	-0.0072
773.974	-0.0062
774.285	-0.0044
774.595	-0.0109
774.906	-0.0144
775.217	-0.0146
775.527	-0.0098
775.838	-0.0066
776.148	-0.0097
776.458	-0.0116
776.769	-0.0153
777.079	-0.0138
777.389	-0.0148
777.699	-0.0125
778.009	-0.0113
778.319	-0.0072
778.629	-0.0046
778.939	-0.0043
779.249	-0.0051
779.559	-0.0091
779.869	-0.0117
780.178	-0.0172
780.488	-0.0204
780.798	-0.0169
781.107	-0.0114
781.417	-0.008
781.726	-0.0112
782.035	-0.0135
782.345	-0.0138
782.654	-0.0103
782.963	-0.0117
783.272	-0.0078
783.581	-0.0052
783.89	-0.0019
784.199	-0.004
784.508	-0.01
784.817	-0.0138
785.126	-0.0095
785.434	-0.0082
785.743	-0.0062
786.052	-0.0126
786.36	-0.0104
786.669	-0.0111
786.977	-0.0128
787.285	-0.0146
787.594	-0.0127
787.902	-0.0079
788.21	-0.0051
788.518	-0.0059
788.826	-0.0098
789.135	-0.0125
789.442	-0.0166
789.75	-0.0149
790.058	-0.0128
790.366	-0.0105
790.674	-0.0109
790.981	-0.013
791.289	-0.0105
791.597	-0.0055
791.904	-0.0056
792.212	-0.0058
792.519	-0.0119
792.826	-0.0038
793.134	0.0031
793.441	0.0052
793.748	0.0035
794.055	-0.0027
794.362	-0.0052
794.669	-0.0107
794.976	-0.0124
795.283	-0.0053
795.59	-0.0044
795.897	-0.0058
796.203	-0.0097
796.51	-0.0077
796.817	-0.0023
797.123	-0.0058
797.43	-0.0099
797.736	-0.0129
798.042	-0.0112
798.349	-0.0096
798.655	-0.0062
798.961	-0.0022
799.267	0.0011
799.573	0.0011
799.879	-0.0016
800.185	-0.0001
800.491	-0.0044
800.797	-0.0051
801.103	-0.009
801.408	-0.0047
801.714	-0.0033
802.02	-0.0069
802.325	-0.0121
802.631	-0.018
802.936	-0.0159
803.242	-0.0103
803.547	-0.0084
803.852	-0.0083
804.157	-0.0083
804.462	-0.0063
804.768	-0.0023
805.073	-0.0041
805.378	-0.0017
805.682	-0.0018
805.987	-0.001
806.292	-0.006
806.597	-0.0111
806.902	-0.0098
807.206	-0.0163
807.511	-0.0118
807.815	-0.0119
808.12	-0.0093
808.424	-0.0042
808.728	-0.0129
809.033	-0.001
809.337	-0.0042
809.641	-0.001
809.945	-0.0037
810.249	-0.009
810.553	-0.0113
810.857	-0.0205
811.161	-0.0221
811.465	-0.0186
811.768	-0.0071
812.072	-0.0028
812.376	0.0003
812.679	-0.006
812.983	-0.0034
813.286	-0.0124
813.59	-0.0082
813.893	-0.004
814.196	0.0037
814.499	0.002
814.803	-0.004
815.106	-0.0012
815.409	0.0029
815.712	0.0052
816.015	-0.0027
816.318	-0.0038
816.62	-0.0036
816.923	0.0014
817.226	-0.0043
817.528	-0.0069
817.831	-0.0086
818.133	-0.0052
818.436	-0.0072
818.738	-0.0066
819.041	-0.0104
819.343	-0.01
819.645	-0.0106
819.947	-0.003
820.249	-0.0005
820.551	0.0041
820.853	-0.0038
821.155	0.0013
821.457	-0.011
821.759	-0.0083
822.061	-0.0092
822.362	-0.0027
822.664	0.0036
822.966	-0.0033
823.267	-0.0019
823.569	-0.0069
823.87	-0.0041
824.171	-0.0087
824.473	-0.0106
824.774	-0.0115
825.075	-0.0069
825.376	-0.0059
825.677	-0.0088
825.978	-0.0094
826.279	-0.0099
826.58	-0.0128
826.881	-0.0129
827.181	-0.0135
827.482	-0.0072
827.783	-0.0144
828.083	-0.013
828.384	-0.0097
828.684	-0.0039
828.985	-0.0024
829.285	-0.0079
829.585	-0.0036
829.885	-0.0029
830.185	-0.0046
830.486	-0.0153
830.786	-0.0249
831.086	-0.0219
831.385	-0.0219
831.685	-0.0123
831.985	-0.0106
832.285	-0.0055
832.585	0.0036
832.884	0.0019
833.184	0.0031
833.483	-0.0018
833.783	-0.0054
834.082	-0.0028
834.381	-0.0108
834.681	-0.0163
834.98	-0.0213
835.279	-0.0173
835.578	-0.01
835.877	-0.0063
836.176	-0.0164
836.475	-0.0049
836.774	-0.0034
837.072	0.0013
837.371	-0.0069
837.67	-0.0028
837.968	-0.0048
838.267	-0.0111
838.565	-0.0101
838.864	-0.0088
839.162	-0.0064
839.46	-0.0158
839.759	-0.0117
840.057	-0.0029
840.355	0.0032
840.653	0.0028
840.951	-0.0092
841.249	-0.0099
841.547	-0.0066
841.845	-0.0064
842.142	-0.004
842.44	-0.0104
842.738	-0.0098
843.035	-0.026
843.333	-0.0375
843.63	-0.0321
843.928	-0.0167
844.225	-0.0025
844.522	0.0035
844.82	-0.005
845.117	-0.0069
845.414	-0.0168
845.711	-0.016
846.008	-0.0153
846.305	-0.021
846.602	-0.0241
846.898	-0.0231
847.195	-0.031
847.492	-0.0289
847.788	-0.0422
848.085	-0.0269
848.382	-0.0214
848.678	-0.0082
848.974	-0.0075
849.271	-0.0251
849.567	-0.0235
849.863	-0.0326
850.159	-0.0255
850.455	-0.0246
850.751	-0.009
851.047	0.0072
851.343	0.0083
851.639	-0.0047
851.935	-0.008
852.23	-0.0095
852.526	-0.0009
852.822	-0.0093
853.117	-0.0061
853.413	-0.0007
853.708	-0.0071
854.003	-0.0184
854.299	-0.0339
854.594	-0.0298
854.889	-0.0163
855.184	-0.0167
855.479	-0.0181
855.774	-0.0272
856.069	-0.021
856.364	-0.0121
856.659	-0.0016
856.954	-0.0063
857.248	-0.0159
857.543	-0.016
857.837	-0.0182
858.132	-0.0102
858.426	-0.0197
858.721	-0.0081
859.015	-0.0223
859.309	-0.0246
859.604	-0.0065
859.898	0.0208
860.192	-0.003
860.486	-0.0177
860.78	-0.0328
861.074	-0.0106
861.367	-0.007
861.661	0.0014
861.955	0.0276
862.248	0.0259
862.542	0.0342
862.836	0.0175
863.129	0.0041
863.422	-0.0301
863.716	-0.0225
864.009	-0.0252
864.302	-0.0063
864.595	-0.0102
864.889	-0.0036
865.182	0.0048
865.475	0.0031
865.767	-0.0233
866.06	-0.0288
866.353	-0.0548
866.646	-0.0471
866.938	-0.0556
867.231	-0.0212
867.524	-0.0025
867.816	0.0012
868.109	-0.021
868.401	-0.0215
868.693	-0.0409
868.985	-0.0144
869.278	-0.0142
869.57	0.0121
869.862	0.008
870.154	-0.0044
870.446	-0.0204
870.738	-0.0272
871.029	-0.0083
871.321	0.0038
871.613	-0.0007
871.904	-0.0181
872.196	-0.0315
872.487	-0.0476
872.779	-0.0312
873.07	-0.0121
873.362	-0.0023
873.653	-0.0061
873.944	-0.0242
874.235	0.0006
874.526	0.0184
874.817	0.0228
875.108	0.0022
875.399	-0.0156
875.69	-0.0407
875.981	-0.0331
876.271	-0.0317
876.562	-0.0143
876.853	0.0125
877.143	0.0273
877.434	0.0317
877.724	0.0061
878.014	-0.0097
878.305	0.0158
878.595	0.0167
878.885	0.0318
879.175	0.0038
879.465	0.0074
879.755	0.0084
880.045	0.0121
880.335	0.0054
880.624	-0.02
880.914	-0.02
