Data from 36SS03OI_072017_1a_Absorbance_17-23-25-404.txt Node
Date: Fri Jul 28 17:23:25 MDT 2017
User: Tank Lab
Spectrometer: FLMS01220
Trigger mode: 0
Integration Time (sec): 1.000000E-1
Scans to average: 10
Electric dark correction enabled: true
Nonlinearity correction enabled: false
Boxcar width: 1
XAxis mode: Wavelengths
Number of Pixels in Spectrum: 2048
>>>>>Begin Spectral Data<<<<<
179.47	0.5338
179.856	0.5338
180.241	-0
180.626	-0
181.011	0.3864
181.396	0.7224
181.781	-0
182.166	-1.1528
182.551	-0.0223
182.936	0.2486
183.321	1.0169
183.706	0.4415
184.091	-0.2688
184.476	-0
184.86	-0.5469
185.245	-1.1439
185.63	-0.1591
186.015	-0
186.399	-0
186.784	-0
187.169	0.607
187.553	-0
187.938	-0
188.322	-0.1453
188.707	-0.025
189.091	0.0412
189.475	0.0693
189.86	0.0666
190.244	0.0594
190.629	0.1121
191.013	0.1638
191.397	0.2152
191.781	0.2526
192.165	0.2846
192.55	0.2985
192.934	0.2932
193.318	0.2886
193.702	0.3152
194.086	0.3176
194.47	0.3095
194.854	0.2959
195.238	0.2868
195.622	0.2915
196.006	0.2924
196.389	0.2835
196.773	0.2736
197.157	0.2646
197.541	0.2681
197.924	0.2574
198.308	0.2504
198.692	0.242
199.075	0.2344
199.459	0.2218
199.843	0.2174
200.226	0.2157
200.61	0.2157
200.993	0.2038
201.376	0.1983
201.76	0.1894
202.143	0.1907
202.527	0.1856
202.91	0.1824
203.293	0.1741
203.676	0.1705
204.059	0.1689
204.443	0.1687
204.826	0.1699
205.209	0.1685
205.592	0.1666
205.975	0.1622
206.358	0.1608
206.741	0.1592
207.124	0.1604
207.507	0.1549
207.89	0.1536
208.273	0.1494
208.655	0.1493
209.038	0.1453
209.421	0.146
209.804	0.1467
210.186	0.1479
210.569	0.1454
210.951	0.1446
211.334	0.1434
211.717	0.1437
212.099	0.1406
212.482	0.1402
212.864	0.1372
213.246	0.1382
213.629	0.1366
214.011	0.1368
214.393	0.133
214.776	0.1301
215.158	0.1266
215.54	0.1291
215.922	0.1304
216.305	0.1313
216.687	0.1296
217.069	0.1261
217.451	0.125
217.833	0.1226
218.215	0.1223
218.597	0.1216
218.979	0.1194
219.361	0.1168
219.742	0.1174
220.124	0.1174
220.506	0.1179
220.888	0.1146
221.27	0.1145
221.651	0.1152
222.033	0.1142
222.415	0.1112
222.796	0.1099
223.178	0.1092
223.559	0.1094
223.941	0.1054
224.322	0.1045
224.704	0.1036
225.085	0.1061
225.466	0.1041
225.848	0.1034
226.229	0.0997
226.61	0.1015
226.992	0.0998
227.373	0.1011
227.754	0.0988
228.135	0.099
228.516	0.0968
228.897	0.0952
229.278	0.0939
229.659	0.0952
230.04	0.0952
230.421	0.094
230.802	0.0919
231.183	0.0914
231.564	0.0923
231.944	0.0926
232.325	0.0915
232.706	0.0896
233.087	0.0879
233.467	0.0871
233.848	0.0876
234.229	0.0889
234.609	0.0894
234.99	0.0871
235.37	0.0855
235.751	0.0846
236.131	0.085
236.511	0.0861
236.892	0.0859
237.272	0.0843
237.652	0.0819
238.033	0.0821
238.413	0.0824
238.793	0.0809
239.173	0.0795
239.553	0.0789
239.933	0.0799
240.313	0.0802
240.694	0.0783
241.074	0.0766
241.453	0.0759
241.833	0.0768
242.213	0.0772
242.593	0.0759
242.973	0.077
243.353	0.0749
243.732	0.0753
244.112	0.0731
244.492	0.0751
244.872	0.0743
245.251	0.0742
245.631	0.0735
246.01	0.0735
246.39	0.0731
246.769	0.0723
247.149	0.0718
247.528	0.0729
247.908	0.0727
248.287	0.0731
248.666	0.0714
249.045	0.0711
249.425	0.07
249.804	0.0695
250.183	0.0692
250.562	0.0677
250.941	0.0675
251.32	0.0666
251.699	0.0678
252.078	0.0694
252.457	0.0693
252.836	0.0685
253.215	0.0679
253.594	0.0679
253.973	0.0692
254.352	0.0682
254.731	0.0676
255.109	0.0662
255.488	0.0665
255.867	0.0669
256.245	0.0665
256.624	0.0659
257.002	0.0648
257.381	0.0653
257.759	0.0641
258.138	0.064
258.516	0.0635
258.895	0.0644
259.273	0.0647
259.651	0.0635
260.03	0.0627
260.408	0.0639
260.786	0.064
261.164	0.0644
261.542	0.0625
261.921	0.0624
262.299	0.0622
262.677	0.0621
263.055	0.0616
263.433	0.0607
263.811	0.0609
264.188	0.0609
264.566	0.0602
264.944	0.0597
265.322	0.0597
265.7	0.0593
266.077	0.0577
266.455	0.057
266.833	0.0584
267.21	0.0604
267.588	0.0612
267.966	0.0606
268.343	0.0599
268.721	0.0589
269.098	0.058
269.475	0.057
269.853	0.057
270.23	0.0569
270.607	0.0563
270.985	0.0562
271.362	0.0552
271.739	0.0551
272.116	0.054
272.494	0.0543
272.871	0.0548
273.248	0.055
273.625	0.0544
274.002	0.0531
274.379	0.0523
274.756	0.0525
275.132	0.0523
275.509	0.0529
275.886	0.0519
276.263	0.0528
276.64	0.0525
277.016	0.0527
277.393	0.0521
277.77	0.0502
278.146	0.0497
278.523	0.0489
278.899	0.0484
279.276	0.0481
279.652	0.048
280.029	0.0496
280.405	0.0489
280.782	0.0484
281.158	0.0481
281.534	0.0482
281.91	0.0486
282.287	0.0476
282.663	0.0488
283.039	0.0487
283.415	0.048
283.791	0.046
284.167	0.0448
284.543	0.0446
284.919	0.0443
285.295	0.0456
285.671	0.045
286.047	0.0447
286.423	0.0427
286.799	0.0431
287.174	0.0424
287.55	0.0418
287.926	0.0419
288.301	0.043
288.677	0.0431
289.053	0.0429
289.428	0.042
289.804	0.042
290.179	0.0413
290.555	0.0417
290.93	0.0425
291.305	0.0426
291.681	0.043
292.056	0.0437
292.431	0.0436
292.806	0.043
293.182	0.0413
293.557	0.0413
293.932	0.04
294.307	0.0402
294.682	0.0391
295.057	0.0402
295.432	0.0393
295.807	0.0395
296.182	0.0381
296.557	0.0383
296.932	0.0379
297.306	0.0388
297.681	0.0381
298.056	0.038
298.43	0.0367
298.805	0.0355
299.18	0.0355
299.554	0.0357
299.929	0.0378
300.303	0.0377
300.678	0.0361
301.052	0.0355
301.427	0.0343
301.801	0.0354
302.175	0.0334
302.55	0.0344
302.924	0.0335
303.298	0.034
303.672	0.0331
304.046	0.0329
304.421	0.0337
304.795	0.0349
305.169	0.0354
305.543	0.0348
305.917	0.0331
306.291	0.0333
306.664	0.0342
307.038	0.0342
307.412	0.0336
307.786	0.0318
308.16	0.0316
308.533	0.032
308.907	0.0333
309.281	0.034
309.654	0.0317
310.028	0.0309
310.401	0.0319
310.775	0.0321
311.148	0.0327
311.522	0.0307
311.895	0.0307
312.268	0.0295
312.642	0.0278
313.015	0.0275
313.388	0.0269
313.761	0.0277
314.135	0.0296
314.508	0.03
314.881	0.0307
315.254	0.0297
315.627	0.0292
316	0.0285
316.373	0.0266
316.746	0.0279
317.118	0.027
317.491	0.0287
317.864	0.0283
318.237	0.0285
318.61	0.0268
318.982	0.026
319.355	0.0247
319.727	0.0259
320.1	0.0247
320.473	0.025
320.845	0.025
321.218	0.0244
321.59	0.026
321.962	0.0254
322.335	0.0265
322.707	0.0262
323.079	0.0267
323.452	0.027
323.824	0.0283
324.196	0.0286
324.568	0.0282
324.94	0.0264
325.312	0.027
325.684	0.0276
326.056	0.0269
326.428	0.0243
326.8	0.0222
327.172	0.0234
327.544	0.0223
327.915	0.0214
328.287	0.0207
328.659	0.0242
329.031	0.0262
329.402	0.0242
329.774	0.0217
330.145	0.0197
330.517	0.0202
330.888	0.0187
331.26	0.0193
331.631	0.0202
332.003	0.0221
332.374	0.0228
332.745	0.0235
333.117	0.0227
333.488	0.0213
333.859	0.021
334.23	0.0206
334.601	0.0216
334.972	0.0227
335.343	0.0233
335.714	0.0221
336.085	0.0198
336.456	0.0195
336.827	0.0199
337.198	0.0215
337.569	0.021
337.94	0.0206
338.31	0.0196
338.681	0.0187
339.052	0.0192
339.422	0.0197
339.793	0.0212
340.164	0.0198
340.534	0.0202
340.905	0.0183
341.275	0.0187
341.645	0.0172
342.016	0.0188
342.386	0.0179
342.756	0.0194
343.127	0.0183
343.497	0.0184
343.867	0.018
344.237	0.0187
344.607	0.019
344.977	0.0176
345.347	0.0183
345.717	0.0177
346.087	0.0169
346.457	0.0179
346.827	0.0188
347.197	0.0198
347.567	0.0172
347.936	0.0163
348.306	0.0172
348.676	0.0179
349.046	0.0189
349.415	0.018
349.785	0.0185
350.154	0.0169
350.524	0.017
350.893	0.0157
351.263	0.0169
351.632	0.0156
352.001	0.0161
352.371	0.0159
352.74	0.0145
353.109	0.0146
353.478	0.0143
353.847	0.0153
354.217	0.0157
354.586	0.014
354.955	0.0145
355.324	0.0134
355.693	0.0163
356.062	0.017
356.43	0.0192
356.799	0.017
357.168	0.0157
357.537	0.0133
357.906	0.0133
358.274	0.0127
358.643	0.0119
359.011	0.0118
359.38	0.0125
359.749	0.0124
360.117	0.0115
360.486	0.0126
360.854	0.0128
361.222	0.0123
361.591	0.0114
361.959	0.0102
362.327	0.0122
362.695	0.0124
363.064	0.0142
363.432	0.0135
363.8	0.013
364.168	0.0122
364.536	0.0128
364.904	0.0118
365.272	0.0113
365.64	0.0091
366.008	0.0092
366.376	0.0104
366.743	0.0123
367.111	0.0131
367.479	0.0119
367.847	0.012
368.214	0.0135
368.582	0.0139
368.949	0.0142
369.317	0.0104
369.684	0.0087
370.052	0.0065
370.419	0.0087
370.787	0.0111
371.154	0.0139
371.521	0.0122
371.889	0.012
372.256	0.0108
372.623	0.0117
372.99	0.0097
373.357	0.0095
373.724	0.011
374.091	0.0129
374.458	0.0112
374.825	0.0107
375.192	0.0092
375.559	0.0099
375.926	0.0092
376.293	0.009
376.659	0.0099
377.026	0.0098
377.393	0.0105
377.759	0.0101
378.126	0.011
378.492	0.011
378.859	0.0101
379.225	0.008
379.592	0.0081
379.958	0.0075
380.325	0.0076
380.691	0.0075
381.057	0.0084
381.423	0.0092
381.79	0.0095
382.156	0.0069
382.522	0.007
382.888	0.0078
383.254	0.0108
383.62	0.011
383.986	0.0103
384.352	0.0072
384.718	0.0072
385.084	0.0082
385.449	0.0095
385.815	0.0082
386.181	0.0074
386.547	0.0081
386.912	0.0084
387.278	0.0071
387.643	0.0055
388.009	0.0064
388.374	0.0054
388.74	0.0062
389.105	0.0044
389.471	0.0058
389.836	0.008
390.201	0.0099
390.566	0.0111
390.932	0.0097
391.297	0.0083
391.662	0.0061
392.027	0.0048
392.392	0.0033
392.757	0.0034
393.122	0.003
393.487	0.0048
393.852	0.0048
394.217	0.0064
394.582	0.0089
394.946	0.0082
395.311	0.0075
395.676	0.0048
396.04	0.0055
396.405	0.0058
396.77	0.0052
397.134	0.0031
397.499	0.0037
397.863	0.0036
398.227	0.0053
398.592	0.0026
398.956	0.003
399.32	0.0033
399.685	0.0058
400.049	0.008
400.413	0.0076
400.777	0.0074
401.141	0.0074
401.505	0.0089
401.869	0.0091
402.233	0.0071
402.597	0.0066
402.961	0.0046
403.325	0.0067
403.689	0.0065
404.053	0.008
404.416	0.0047
404.78	0.0028
405.144	0.004
405.507	0.0067
405.871	0.0083
406.234	0.0077
406.598	0.0052
406.961	0.0045
407.325	0.004
407.688	0.005
408.051	0.0061
408.415	0.0075
408.778	0.0074
409.141	0.0063
409.504	0.0052
409.867	0.0044
410.23	0.0033
410.593	0.0027
410.956	0.0037
411.319	0.0045
411.682	0.0009
412.045	-0.0011
412.408	-0.0021
412.771	0.0014
413.134	0.003
413.496	0.0047
413.859	0.0044
414.222	0.0047
414.584	0.0057
414.947	0.0057
415.309	0.0056
415.672	0.0059
416.034	0.0043
416.396	0.0038
416.759	0.0014
417.121	0.0023
417.483	0.0021
417.846	0.0009
418.208	0.0018
418.57	0.0018
418.932	0.0011
419.294	0.0019
419.656	0.0019
420.018	0.0037
420.38	0.0027
420.742	0.0023
421.104	0.0029
421.466	0.0022
421.827	0.0015
422.189	0.0001
422.551	0.001
422.912	0.0035
423.274	0.0048
423.636	0.0044
423.997	0.0034
424.359	0.0043
424.72	0.0051
425.081	0.0048
425.443	0.0058
425.804	0.0042
426.165	0.0058
426.527	0.0043
426.888	0.0036
427.249	0.0031
427.61	0.0041
427.971	0.0046
428.332	0.0039
428.693	0.0032
429.054	0.0041
429.415	0.0044
429.776	0.0015
430.137	0.0011
430.498	0.0012
430.858	0.0038
431.219	0.002
431.58	0.003
431.94	0.0036
432.301	0.0055
432.661	0.0008
433.022	0.0011
433.382	0.0007
433.743	0.0059
434.103	0.0046
434.463	0.0046
434.824	0.0002
435.184	0.0021
435.544	0.0032
435.904	0.007
436.264	0.0056
436.624	0.0043
436.985	0.0017
437.345	0.002
437.704	0.0011
438.064	0.0023
438.424	0.0004
438.784	-0.0002
439.144	0.0006
439.504	0.0017
439.863	0.0013
440.223	0.0006
440.583	0.0007
440.942	0.003
441.302	0.0035
441.661	0.0013
442.021	0.0031
442.38	0.0016
442.739	0.0017
443.099	-0.0013
443.458	0.0008
443.817	0.0039
444.176	0.0067
444.536	0.005
444.895	0.0042
445.254	0.0008
445.613	0.0015
445.972	0.0013
446.331	0.0019
446.69	0.0017
447.049	-0.0006
447.407	-0.0007
447.766	-0.0014
448.125	0.0032
448.484	0.0053
448.842	0.0072
449.201	0.0026
449.559	-0.0019
449.918	-0.0027
450.276	-0.0005
450.635	0.0043
450.993	0.0032
451.352	0.0024
451.71	0.0009
452.068	0.0003
452.426	0.0012
452.785	0.0016
453.143	0.0026
453.501	0.0044
453.859	0.0014
454.217	0.0028
454.575	-0.002
454.933	-0
455.291	0.0011
455.649	0.0037
456.006	0.0036
456.364	0.0039
456.722	0.003
457.079	0.0024
457.437	0.0008
457.795	0.0032
458.152	0.0043
458.51	0.0041
458.867	0.0013
459.225	-0.0005
459.582	-0.0012
459.939	-0.0009
460.297	-0.0004
460.654	-0.0003
461.011	-0.0001
461.368	0.0025
461.725	0.0011
462.082	0.003
462.44	0.0003
462.797	0.0006
463.153	0.0001
463.51	0.0001
463.867	0.0015
464.224	0.0028
464.581	0.004
464.938	0.0022
465.294	0.0013
465.651	0.0006
466.008	-0.0008
466.364	0.0002
466.721	0.0005
467.077	0.0002
467.434	-0.0004
467.79	-0
468.146	0.003
468.503	0.0035
468.859	0.0041
469.215	0.0032
469.571	-0.0012
469.927	-0.0008
470.284	0.0007
470.64	0.0038
470.996	0.0012
471.352	-0.0026
471.707	-0.004
472.063	0.0006
472.419	0.0042
472.775	0.0064
473.131	0.0036
473.486	0.0016
473.842	0.0014
474.198	0
474.553	0.0014
474.909	0.0023
475.264	0.0029
475.62	0.0037
475.975	0.0017
476.331	0.0029
476.686	0.0016
477.041	0.0027
477.396	0.0013
477.752	0.0013
478.107	0.0013
478.462	0.0006
478.817	0.0017
479.172	0.0012
479.527	0.0014
479.882	-0.0009
480.237	-0.0004
480.591	0.0025
480.946	0.0061
481.301	0.0059
481.656	0.0046
482.01	0.0031
482.365	0.0032
482.72	0.002
483.074	0.0018
483.429	-0.0001
483.783	0.0006
484.137	-0.0003
484.492	-0.0003
484.846	-0.0008
485.2	0.0005
485.555	0.0016
485.909	0.0001
486.263	-0.0014
486.617	-0.0016
486.971	-0.0006
487.325	0.0007
487.679	0.0009
488.033	0.0018
488.387	0.0025
488.741	0.0027
489.094	0.0002
489.448	-0.002
489.802	-0.0008
490.156	0.001
490.509	0.0013
490.863	-0.001
491.216	-0.0006
491.57	-0.0011
491.923	-0.0004
492.277	-0.0005
492.63	-0.0006
492.983	0.0001
493.337	-0.0005
493.69	-0.0024
494.043	-0.0043
494.396	-0.0039
494.749	-0.001
495.102	-0.0015
495.455	-0.0015
495.808	-0.0016
496.161	-0.0008
496.514	-0.0003
496.867	-0.0009
497.22	0.0011
497.572	0.0004
497.925	0.0017
498.278	-0.0007
498.63	0.0005
498.983	-0.0002
499.335	0.0009
499.688	-0.001
500.04	-0.0024
500.393	-0.0032
500.745	-0.0023
501.097	-0.0018
501.449	-0.0015
501.802	-0.0032
502.154	-0.0015
502.506	-0.0011
502.858	-0.0009
503.21	-0.0008
503.562	-0.0019
503.914	-0.0011
504.266	-0.0016
504.618	-0.0006
504.969	0.0014
505.321	0.0003
505.673	0.0014
506.025	-0.0001
506.376	0.0008
506.728	-0.001
507.079	-0.0015
507.431	-0.002
507.782	-0.0004
508.134	-0.0007
508.485	-0.0005
508.836	-0.0003
509.188	-0.0009
509.539	-0.002
509.89	0.0004
510.241	0.0003
510.592	0.0005
510.943	-0.0027
511.294	-0.0015
511.645	-0.0026
511.996	-0.0024
512.347	-0.0029
512.698	-0.0019
513.049	-0.001
513.399	0.0017
513.75	0.0022
514.101	0.0006
514.451	-0.0018
514.802	-0.0033
515.152	-0.0039
515.503	-0.0005
515.853	0.0016
516.203	0.0035
516.554	0.0022
516.904	0.0033
517.254	0.002
517.604	-0.0024
517.955	-0.0041
518.305	-0.0061
518.655	-0.0039
519.005	-0.0066
519.355	-0.0041
519.705	-0.0063
520.055	-0.0058
520.404	-0.0082
520.754	-0.0058
521.104	-0.0029
521.454	-0.0023
521.803	-0.0037
522.153	-0.0057
522.502	-0.0056
522.852	-0.0047
523.201	-0.0043
523.551	-0.0051
523.9	-0.0052
524.249	-0.0058
524.599	-0.0038
524.948	-0.0019
525.297	0.0005
525.646	-0.0021
525.995	-0.0041
526.344	-0.004
526.694	-0.0013
527.042	-0.0014
527.391	-0.0033
527.74	-0.0032
528.089	-0.0006
528.438	0.0015
528.787	-0.0003
529.135	-0.0043
529.484	-0.0061
529.833	-0.0045
530.181	-0.0043
530.53	-0.0057
530.878	-0.0073
531.227	-0.0042
531.575	-0.0028
531.923	-0.0017
532.271	-0.003
532.62	-0.0014
532.968	-0.0011
533.316	-0.0017
533.664	0.0009
534.012	0.0011
534.36	0.0031
534.708	-0.0001
535.056	-0.0039
535.404	-0.0043
535.752	-0.0043
536.1	-0.0008
536.447	-0.0025
536.795	-0.0024
537.143	-0.0025
537.49	-0.0031
537.838	-0.0035
538.185	-0.003
538.533	-0.002
538.88	-0.0047
539.228	-0.0035
539.575	-0.0049
539.922	-0.001
540.269	-0.0031
540.617	-0.0004
540.964	-0.0056
541.311	-0.0045
541.658	-0.0049
542.005	-0.0015
542.352	-0.0026
542.699	-0.0028
543.045	-0.0041
543.392	-0.0027
543.739	-0.0034
544.086	-0.0048
544.432	-0.0075
544.779	-0.0099
545.126	-0.0049
545.472	-0.0038
545.819	-0.0006
546.165	-0.0033
546.512	-0.001
546.858	-0.0026
547.204	-0.0021
547.55	-0.005
547.897	-0.0029
548.243	-0.0046
548.589	-0.0039
548.935	-0.0058
549.281	-0.0047
549.627	-0.0033
549.973	-0.0012
550.319	-0.0029
550.665	-0.0061
551.01	-0.007
551.356	-0.0054
551.702	-0.0029
552.048	-0.0033
552.393	-0.0047
552.739	-0.0065
553.084	-0.0079
553.43	-0.0057
553.775	-0.0065
554.12	-0.0044
554.466	-0.0072
554.811	-0.0062
555.156	-0.0083
555.502	-0.009
555.847	-0.0078
556.192	-0.0057
556.537	-0.0039
556.882	-0.0053
557.227	-0.0061
557.572	-0.0063
557.917	-0.0009
558.261	-0.0019
558.606	-0.001
558.951	-0.0054
559.295	-0.0065
559.64	-0.0064
559.985	-0.0049
560.329	-0.0035
560.674	-0.0021
561.018	-0.0013
561.363	-0.0018
561.707	-0.0031
562.051	-0.008
562.395	-0.0069
562.74	-0.0057
563.084	-0.0029
563.428	-0.0024
563.772	-0.0057
564.116	-0.007
564.46	-0.009
564.804	-0.0083
565.148	-0.0098
565.492	-0.008
565.835	-0.0063
566.179	-0.005
566.523	-0.0072
566.866	-0.0086
567.21	-0.0086
567.554	-0.0081
567.897	-0.0038
568.24	-0.0052
568.584	-0.003
568.927	-0.0047
569.271	-0.0021
569.614	-0.0017
569.957	-0.0026
570.3	-0.0024
570.643	-0.0042
570.986	-0.0067
571.329	-0.0046
571.672	-0.0032
572.015	-0.0024
572.358	-0.0022
572.701	-0.0042
573.044	-0.005
573.387	-0.0068
573.729	-0.006
574.072	-0.0052
574.414	-0.0072
574.757	-0.0059
575.099	-0.0076
575.442	-0.0074
575.784	-0.0049
576.127	-0.0037
576.469	-0.005
576.811	-0.0078
577.153	-0.0089
577.496	-0.0096
577.838	-0.0086
578.18	-0.009
578.522	-0.0083
578.864	-0.0113
579.206	-0.0064
579.548	-0.0068
579.889	-0.0085
580.231	-0.0096
580.573	-0.0056
580.915	-0.0041
581.256	-0.0067
581.598	-0.0077
581.939	-0.0104
582.281	-0.0046
582.622	-0.0058
582.964	-0.003
583.305	-0.0068
583.646	-0.0054
583.988	-0.0018
584.329	-0.0019
584.67	-0.0056
585.011	-0.0079
585.352	-0.0096
585.693	-0.0062
586.034	-0.0069
586.375	-0.0062
586.716	-0.0057
587.057	-0.0055
587.398	-0.0067
587.738	-0.0033
588.079	-0.0022
588.42	-0.0017
588.76	-0.0059
589.101	-0.0074
589.441	-0.0075
589.782	-0.0057
590.122	-0.0058
590.463	-0.0043
590.803	-0.004
591.143	-0.0019
591.483	-0.0064
591.823	-0.0091
592.164	-0.0104
592.504	-0.0077
592.844	-0.0066
593.184	-0.0073
593.523	-0.0059
593.863	-0.0052
594.203	-0.0055
594.543	-0.0055
594.883	-0.0054
595.222	-0.0063
595.562	-0.0049
595.901	-0.0052
596.241	-0.0061
596.58	-0.006
596.92	-0.0067
597.259	-0.0063
597.599	-0.0075
597.938	-0.0071
598.277	-0.0042
598.616	-0.0063
598.955	-0.0066
599.295	-0.0097
599.634	-0.0093
599.973	-0.0054
600.312	-0.0045
600.65	-0.0038
600.989	-0.0045
601.328	-0.0003
601.667	0.0027
602.005	-0.0011
602.344	-0.0039
602.683	-0.0061
603.021	-0.0075
603.36	-0.0095
603.698	-0.0102
604.037	-0.0074
604.375	-0.0034
604.713	-0.0045
605.052	-0.0051
605.39	-0.0104
605.728	-0.0104
606.066	-0.0041
606.404	-0.0054
606.742	-0.0047
607.08	-0.0082
607.418	-0.0073
607.756	-0.0076
608.094	-0.0088
608.431	-0.0076
608.769	-0.0061
609.107	-0.0073
609.444	-0.0055
609.782	-0.0061
610.12	-0.0008
610.457	-0.0029
610.794	-0.0075
611.132	-0.0123
611.469	-0.0131
611.806	-0.0094
612.144	-0.0075
612.481	-0.0059
612.818	-0.0033
613.155	-0.0039
613.492	-0.0031
613.829	-0.0037
614.166	-0.0033
614.503	-0.0017
614.84	-0.0045
615.176	-0.0048
615.513	-0.005
615.85	-0.0086
616.187	-0.0062
616.523	-0.0106
616.86	-0.0113
617.196	-0.0136
617.533	-0.009
617.869	-0.0052
618.205	-0.0062
618.542	-0.0072
618.878	-0.0086
619.214	-0.0047
619.55	-0.0043
619.886	-0.0004
620.222	-0.0053
620.558	-0.0039
620.894	-0.0035
621.23	-0.0047
621.566	-0.0094
621.902	-0.0103
622.238	-0.0088
622.573	0.0002
622.909	-0.005
623.244	-0.0031
623.58	-0.0109
623.916	-0.0133
624.251	-0.0118
624.586	-0.006
624.922	-0.0012
625.257	-0.0054
625.592	-0.0087
625.927	-0.0054
626.263	-0.0055
626.598	-0.0063
626.933	-0.0083
627.268	-0.0057
627.603	-0.006
627.938	-0.01
628.272	-0.0124
628.607	-0.015
628.942	-0.0131
629.277	-0.0113
629.611	-0.0083
629.946	-0.0051
630.281	-0.0056
630.615	-0.003
630.949	-0.0033
631.284	-0.006
631.618	-0.0064
631.953	-0.0059
632.287	-0.001
632.621	-0.0021
632.955	-0.0035
633.289	-0.0052
633.623	-0.0024
633.957	-0.0028
634.291	-0.005
634.625	-0.0071
634.959	-0.0081
635.293	-0.0062
635.627	-0.0082
635.96	-0.0108
636.294	-0.0122
636.627	-0.0147
636.961	-0.0095
637.294	-0.0137
637.628	-0.0095
637.961	-0.011
638.295	-0.0045
638.628	-0.0078
638.961	-0.0076
639.294	-0.0083
639.628	-0.0062
639.961	-0.0071
640.294	-0.0062
640.627	-0.0074
640.96	-0.0107
641.293	-0.0117
641.625	-0.0165
641.958	-0.0144
642.291	-0.0103
642.624	-0.0019
642.956	0.0036
643.289	-0.0001
643.621	-0.0062
643.954	-0.0138
644.286	-0.0167
644.619	-0.0124
644.951	-0.0082
645.283	-0.0068
645.616	-0.0076
645.948	-0.008
646.28	-0.0038
646.612	-0.005
646.944	-0.0033
647.276	-0.0043
647.608	-0.0061
647.94	-0.0031
648.272	-0.0005
648.603	0.0028
648.935	-0.0029
649.267	-0.007
649.598	-0.007
649.93	-0.0036
650.261	-0.0022
650.593	0.0022
650.924	0.002
651.256	0.0007
651.587	-0.0027
651.918	-0.0037
652.25	-0.0067
652.581	-0.0122
652.912	-0.0109
653.243	-0.0081
653.574	-0.0053
653.905	-0.0085
654.236	-0.0072
654.567	-0.0033
654.897	-0.0017
655.228	-0.0024
655.559	-0.0033
655.89	-0.0025
656.22	-0.0067
656.551	-0.0053
656.881	-0.0068
657.212	-0.0055
657.542	-0.0089
657.872	-0.0122
658.203	-0.0093
658.533	0.0047
658.863	0.0014
659.193	-0.0081
659.523	-0.0135
659.853	-0.0211
660.183	-0.0141
660.513	-0.0118
660.843	-0.0109
661.173	-0.0122
661.503	-0.0148
661.833	-0.0162
662.162	-0.016
662.492	-0.0089
662.822	-0.0122
663.151	-0.0146
663.481	-0.0166
663.81	-0.0137
664.139	-0.0037
664.469	-0.006
664.798	-0.005
665.127	-0.0103
665.456	-0.0061
665.785	-0.0068
666.114	-0.0066
666.443	-0.0083
666.772	-0.0089
667.101	-0.0098
667.43	-0.0123
667.759	-0.0097
668.088	-0.0079
668.416	-0.0091
668.745	-0.0109
669.074	-0.0144
669.402	-0.0148
669.731	-0.0131
670.059	-0.011
670.388	-0.0066
670.716	-0.0059
671.044	-0.0023
671.372	-0.0065
671.701	-0.0085
672.029	-0.0081
672.357	-0.0051
672.685	-0.0058
673.013	-0.0104
673.341	-0.0102
673.669	-0.0096
673.996	-0.0046
674.324	-0.0063
674.652	-0.0054
674.98	-0.0044
675.307	-0.0028
675.635	-0.0066
675.962	-0.0103
676.29	-0.0117
676.617	-0.0067
676.945	-0.0034
677.272	-0.002
677.599	-0.0031
677.926	-0.0041
678.253	-0.0021
678.581	-0.0059
678.908	-0.0061
679.235	-0.0082
679.561	-0.0025
679.888	-0.0016
680.215	-0.0029
680.542	-0.0046
680.869	-0.0077
681.195	-0.0052
681.522	-0.0051
681.849	-0.0031
682.175	-0.0066
682.502	-0.0073
682.828	-0.0073
683.154	-0.0049
683.481	-0.005
683.807	-0.0077
684.133	-0.0085
684.459	-0.0086
684.785	-0.0052
685.111	-0.0103
685.437	-0.0123
685.763	-0.0149
686.089	-0.012
686.415	-0.0129
686.741	-0.0141
687.067	-0.0077
687.392	-0.0076
687.718	-0.005
688.043	-0.0062
688.369	-0.0047
688.694	-0.0054
689.02	-0.0113
689.345	-0.0066
689.67	-0.01
689.996	-0.0037
690.321	-0.0068
690.646	-0.0031
690.971	-0.0075
691.296	-0.0064
691.621	-0.0084
691.946	-0.0033
692.271	-0.0066
692.596	-0.0035
692.921	-0.0042
693.245	-0.001
693.57	-0.0043
693.895	-0.0056
694.219	-0.0076
694.544	-0.006
694.868	-0.0058
695.193	-0.0059
695.517	-0.0059
695.841	-0.0069
696.166	-0.0064
696.49	-0.0054
696.814	-0.0039
697.138	-0.0053
697.462	-0.0084
697.786	-0.011
698.11	-0.0108
698.434	-0.0074
698.758	-0.0097
699.081	-0.0133
699.405	-0.0157
699.729	-0.008
700.052	-0.0086
700.376	-0.0075
700.7	-0.0104
701.023	-0.009
701.346	-0.012
701.67	-0.0134
701.993	-0.0149
702.316	-0.0112
702.639	-0.0114
702.963	-0.0116
703.286	-0.014
703.609	-0.0132
703.932	-0.0141
704.255	-0.0087
704.578	-0.0106
704.9	-0.004
705.223	-0.0044
705.546	0.0011
705.868	-0.0018
706.191	-0.0092
706.514	-0.0116
706.836	-0.0132
707.159	-0.0112
707.481	-0.0102
707.803	-0.0115
708.126	-0.0091
708.448	-0.014
708.77	-0.0096
709.092	-0.0074
709.414	-0.0026
709.736	-0.0005
710.058	-0.0014
710.38	-0.0048
710.702	-0.0046
711.024	-0.0066
711.345	-0.0024
711.667	-0.0077
711.989	-0.0084
712.31	-0.0098
712.632	-0.0074
712.953	-0.0043
713.275	-0.004
713.596	-0.0005
713.917	-0.0043
714.239	-0.0069
714.56	-0.0095
714.881	-0.0032
715.202	-0.0024
715.523	-0.0021
715.844	-0.0061
716.165	-0.0075
716.486	-0.0103
716.807	-0.0111
717.128	-0.0108
717.448	-0.0112
717.769	-0.015
718.09	-0.0117
718.41	-0.0103
718.731	-0.0051
719.051	-0.0088
719.372	-0.0035
719.692	-0.0075
720.012	-0.0024
720.332	-0.0086
720.653	-0.0061
720.973	-0.0082
721.293	-0.0111
721.613	-0.01
721.933	-0.0067
722.253	0.0017
722.573	-0.0009
722.892	-0.0096
723.212	-0.0176
723.532	-0.0186
723.851	-0.0164
724.171	-0.0185
724.491	-0.0181
724.81	-0.018
725.129	-0.0088
725.449	-0.0067
725.768	-0.0057
726.087	-0.0082
726.407	-0.0096
726.726	-0.0075
727.045	-0.0026
727.364	-0.0014
727.683	0.0006
728.002	-0.005
728.321	-0.0031
728.64	-0.0055
728.958	-0.0033
729.277	-0.0074
729.596	-0.0084
729.914	-0.0109
730.233	-0.0063
730.551	-0.0076
730.87	-0.0097
731.188	-0.0085
731.507	-0.0056
731.825	-0.0039
732.143	-0.0097
732.461	-0.0103
732.779	-0.0076
733.097	-0.0078
733.415	-0.0059
733.733	-0.0069
734.051	-0.0064
734.369	-0.01
734.687	-0.0146
735.005	-0.0114
735.322	-0.0084
735.64	-0.0094
735.957	-0.0076
736.275	-0.0085
736.592	-0.0042
736.91	-0.0074
737.227	-0.0085
737.544	-0.011
737.862	-0.0089
738.179	-0.0079
738.496	-0.0032
738.813	-0.0077
739.13	-0.0119
739.447	-0.0122
739.764	-0.0111
740.081	-0.0098
740.398	-0.012
740.714	-0.0108
741.031	-0.0092
741.348	-0.0075
741.664	-0.0053
741.981	-0.0044
742.297	-0.0043
742.614	-0.0075
742.93	-0.0095
743.246	-0.0107
743.563	-0.0107
743.879	-0.0124
744.195	-0.0098
744.511	-0.0087
744.827	-0.0045
745.143	-0.0099
745.459	-0.0086
745.775	-0.0106
746.091	-0.0117
746.406	-0.0151
746.722	-0.0126
747.038	-0.0113
747.353	-0.01
747.669	-0.0082
747.984	-0.0064
748.3	-0.0069
748.615	-0.013
748.93	-0.0115
749.246	-0.0092
749.561	-0.0056
749.876	-0.0029
750.191	-0.0062
750.506	-0.0085
750.821	-0.0064
751.136	-0.0074
751.451	-0.0036
751.766	-0.0128
752.08	-0.0162
752.395	-0.0164
752.71	-0.0137
753.024	-0.0093
753.339	-0.0045
753.653	-0.0035
753.968	-0.002
754.282	-0.0073
754.596	-0.0076
754.911	-0.0081
755.225	-0.0026
755.539	-0.0048
755.853	-0.0057
756.167	-0.0129
756.481	-0.0108
756.795	-0.0126
757.109	-0.0115
757.423	-0.0149
757.736	-0.0086
758.05	-0.0082
758.364	-0.0054
758.677	-0.0142
758.991	-0.0149
759.304	-0.017
759.618	-0.0098
759.931	-0.0098
760.244	-0.0077
760.558	-0.0092
760.871	-0.0115
761.184	-0.0146
761.497	-0.0137
761.81	-0.0104
762.123	-0.0119
762.436	-0.0141
762.749	-0.0152
763.062	-0.0089
763.374	-0.0123
763.687	-0.014
764	-0.0134
764.312	-0.0082
764.625	-0.0052
764.937	-0.0075
765.25	-0.0077
765.562	-0.0089
765.874	-0.008
766.186	-0.0095
766.499	-0.0094
766.811	-0.0098
767.123	-0.0087
767.435	-0.0087
767.747	-0.0066
768.059	-0.0065
768.37	-0.0064
768.682	-0.0085
768.994	-0.0141
769.306	-0.015
769.617	-0.0137
769.929	-0.0054
770.24	-0.0039
770.552	-0.0064
770.863	-0.0125
771.174	-0.0115
771.486	-0.0106
771.797	-0.008
772.108	-0.0105
772.419	-0.0078
772.73	-0.0094
773.041	-0.006
773.352	-0.0068
773.663	-0.0084
773.974	-0.0084
774.285	-0.0122
774.595	-0.0093
774.906	-0.0063
775.217	-0.0009
775.527	0.0014
775.838	-0.0029
776.148	-0.0084
776.458	-0.0116
776.769	-0.0122
777.079	-0.0099
777.389	-0.0083
777.699	-0.0081
778.009	-0.0088
778.319	-0.0102
778.629	-0.0059
778.939	-0.0049
779.249	-0.0018
779.559	-0.0097
779.869	-0.0109
780.178	-0.0137
780.488	-0.0092
780.798	-0.0074
781.107	-0.0063
781.417	-0.0103
781.726	-0.017
782.035	-0.0173
782.345	-0.0096
782.654	-0.0098
782.963	-0.0078
783.272	-0.0133
783.581	-0.0099
783.89	-0.0103
784.199	-0.008
784.508	-0.0105
784.817	-0.0191
785.126	-0.0228
785.434	-0.0205
785.743	-0.0128
786.052	-0.0101
786.36	-0.0106
786.669	-0.0068
786.977	-0.0075
787.285	-0.0021
787.594	-0.0081
787.902	-0.0072
788.21	-0.0138
788.518	-0.0097
788.826	-0.0111
789.135	-0.0063
789.442	-0.0132
789.75	-0.012
790.058	-0.0156
790.366	-0.011
790.674	-0.0132
790.981	-0.0066
791.289	-0.0056
791.597	-0.0091
791.904	-0.0164
792.212	-0.0174
792.519	-0.0108
792.826	-0.0059
793.134	-0.0046
793.441	-0.0099
793.748	-0.0072
794.055	-0.0073
794.362	-0.0031
794.669	-0.0082
794.976	-0.0105
795.283	-0.0122
795.59	-0.0077
795.897	-0.0071
796.203	-0.0125
796.51	-0.0122
796.817	-0.0126
797.123	-0.0077
797.43	-0.0129
797.736	-0.0114
798.042	-0.0109
798.349	-0.0058
798.655	-0.0063
798.961	-0.0128
799.267	-0.0216
799.573	-0.0218
799.879	-0.016
800.185	-0.0075
800.491	-0.0043
800.797	-0.006
801.103	-0.0055
801.408	-0.0076
801.714	-0.0031
802.02	-0.0018
802.325	-0.0014
802.631	-0.0098
802.936	-0.0155
803.242	-0.0218
803.547	-0.0162
803.852	-0.0203
804.157	-0.0171
804.462	-0.0147
804.768	-0.0074
805.073	-0.0044
805.378	-0.0068
805.682	-0.0082
805.987	-0.0143
806.292	-0.0132
806.597	-0.0026
806.902	0.0013
807.206	0.0014
807.511	-0.011
807.815	-0.0122
808.12	-0.015
808.424	-0.0103
808.728	-0.0052
809.033	-0.0009
809.337	-0.0095
809.641	-0.0159
809.945	-0.0226
810.249	-0.0145
810.553	-0.0137
810.857	-0.0187
811.161	-0.0228
811.465	-0.0173
811.768	-0.016
812.072	-0.0186
812.376	-0.0214
812.679	-0.0175
812.983	-0.0076
813.286	-0.0115
813.59	-0.0099
813.893	-0.0146
814.196	-0.0108
814.499	-0.0094
814.803	-0.014
815.106	-0.0173
815.409	-0.0172
815.712	-0.0133
816.015	-0.0087
816.318	-0.01
816.62	-0.0083
816.923	-0.0082
817.226	-0.0122
817.528	-0.0139
817.831	-0.0184
818.133	-0.0164
818.436	-0.0205
818.738	-0.0158
819.041	-0.0146
819.343	-0.0092
819.645	-0.0144
819.947	-0.0119
820.249	-0.0152
820.551	-0.0135
820.853	-0.0121
821.155	-0.0145
821.457	-0.0159
821.759	-0.015
822.061	-0.0114
822.362	-0.0106
822.664	-0.0154
822.966	-0.0114
823.267	-0.0117
823.569	-0.0111
823.87	-0.0156
824.171	-0.0168
824.473	-0.0148
824.774	-0.011
825.075	-0.0105
825.376	-0.0017
825.677	-0.0044
825.978	0.0012
826.279	-0.0091
826.58	-0.0084
826.881	-0.0127
827.181	-0.0064
827.482	-0.0018
827.783	-0.002
828.083	-0.0126
828.384	-0.0214
828.684	-0.0229
828.985	-0.0161
829.285	-0.0175
829.585	-0.0162
829.885	-0.0188
830.185	-0.0178
830.486	-0.0168
830.786	-0.0151
831.086	-0.015
831.385	-0.0225
831.685	-0.0307
831.985	-0.0337
832.285	-0.0281
832.585	-0.0229
832.884	-0.0173
833.184	-0.0165
833.483	-0.0191
833.783	-0.0204
834.082	-0.0224
834.381	-0.0127
834.681	-0.0112
834.98	-0.0038
835.279	-0.0094
835.578	-0.0081
835.877	-0.0042
836.176	-0.0096
836.475	-0.0081
836.774	-0.0148
837.072	-0.0128
837.371	-0.0107
837.67	-0.0074
837.968	-0.0056
838.267	-0.0081
838.565	-0.0123
838.864	-0.0049
839.162	-0.0106
839.46	-0.0149
839.759	-0.0251
840.057	-0.0268
840.355	-0.0246
840.653	-0.0153
840.951	-0.0178
841.249	-0.0169
841.547	-0.0141
841.845	-0.0014
842.142	0.0041
842.44	-0.0052
842.738	-0.0216
843.035	-0.0311
843.333	-0.0422
843.63	-0.033
843.928	-0.0303
844.225	-0.0109
844.522	-0.0065
844.82	-0.0168
845.117	-0.0181
845.414	-0.0323
845.711	-0.0157
846.008	-0.0245
846.305	-0.0288
846.602	-0.0335
846.898	-0.021
847.195	-0.0137
847.492	-0.0111
847.788	-0.0269
848.085	-0.0151
848.382	-0.0115
848.678	-0.0105
848.974	-0.0171
849.271	-0.0092
849.567	0.0003
849.863	0.0043
850.159	-0.0253
850.455	-0.0311
850.751	-0.0253
851.047	0.0022
851.343	-0.0045
851.639	-0.0103
851.935	-0.0357
852.23	-0.0289
852.526	-0.0343
852.822	-0.0199
853.117	-0.0174
853.413	-0.0082
853.708	-0.0153
854.003	-0.0124
854.299	-0.0165
854.594	-0.017
854.889	-0.023
855.184	-0.0192
855.479	-0.0029
855.774	0.0084
856.069	-0.0132
856.364	-0.0197
856.659	-0.0333
856.954	-0.0048
857.248	-0.0111
857.543	-0.0004
857.837	-0.0115
858.132	-0.0043
858.426	-0.0137
858.721	-0.0325
859.015	-0.0483
859.309	-0.0528
859.604	-0.03
859.898	-0.0117
860.192	0.0019
860.486	-0.0042
860.78	-0.012
861.074	-0.009
861.367	-0.0058
861.661	0.0017
861.955	-0.0163
862.248	-0.0155
862.542	-0.0093
862.836	0.001
863.129	-0.0099
863.422	-0.0213
863.716	-0.0154
864.009	0.0085
864.302	-0.0113
864.595	-0.029
864.889	-0.0457
865.182	-0.042
865.475	-0.0299
865.767	-0.0313
866.06	-0.0193
866.353	-0.0314
866.646	-0.0234
866.938	-0.0304
867.231	-0.0306
867.524	-0.0104
867.816	0.0038
868.109	0.024
868.401	0.0011
868.693	-0.0078
868.985	-0.0296
869.278	-0.033
869.57	-0.028
869.862	-0.0425
870.154	-0.0427
870.446	-0.056
870.738	-0.0446
871.029	-0.0637
871.321	-0.0486
871.613	-0.0429
871.904	-0.0243
872.196	-0.0305
872.487	-0.0094
872.779	-0.0186
873.07	-0.018
873.362	-0.0227
873.653	0.0067
873.944	-0.0062
874.235	-0.0215
874.526	-0.0487
874.817	-0.0452
875.108	-0.0185
875.399	-0.0168
875.69	-0.0151
875.981	-0.0429
876.271	-0.0406
876.562	-0.0417
876.853	-0.043
877.143	-0.0471
877.434	-0.0453
877.724	-0.055
878.014	-0.0287
878.305	-0.0295
878.595	0.0118
878.885	0.0109
879.175	0.0076
879.465	-0.0292
879.755	-0.0345
880.045	0.0017
880.335	0.0385
880.624	0.0514
880.914	0.0514
