Data from 40SS02BU-alt1_080917_1b_Absorbance_11-21-38-449.txt Node
Date: Fri Aug 11 11:21:38 MDT 2017
User: Tank Lab
Spectrometer: FLMS01220
Trigger mode: 0
Integration Time (sec): 1.000000E-1
Scans to average: 10
Electric dark correction enabled: true
Nonlinearity correction enabled: false
Boxcar width: 1
XAxis mode: Wavelengths
Number of Pixels in Spectrum: 2048
>>>>>Begin Spectral Data<<<<<
179.47	1.1154
179.856	1.1154
180.241	-0
180.626	-0
181.011	-0
181.396	-0.1667
181.781	0.2294
182.166	-0
182.551	-0
182.936	-0
183.321	-0
183.706	-0
184.091	-0
184.476	0.2764
184.86	-0
185.245	0.3691
185.63	-0
186.015	-0
186.399	-0
186.784	-0.7632
187.169	-0.0932
187.553	-0
187.938	0.0355
188.322	0.0439
188.707	0.0022
189.091	0.0314
189.475	0.0549
189.86	0.1004
190.244	0.1171
190.629	0.1139
191.013	0.112
191.397	0.134
191.781	0.1881
192.165	0.2265
192.55	0.2345
192.934	0.2381
193.318	0.2368
193.702	0.2529
194.086	0.2572
194.47	0.2592
194.854	0.2527
195.238	0.2479
195.622	0.2435
196.006	0.2373
196.389	0.2367
196.773	0.2391
197.157	0.2474
197.541	0.2471
197.924	0.2493
198.308	0.2432
198.692	0.244
199.075	0.2389
199.459	0.2435
199.843	0.2472
200.226	0.2541
200.61	0.2518
200.993	0.2469
201.376	0.2393
201.76	0.238
202.143	0.241
202.527	0.2461
202.91	0.2423
203.293	0.2361
203.676	0.2323
204.059	0.2343
204.443	0.2367
204.826	0.2298
205.209	0.229
205.592	0.2292
205.975	0.2315
206.358	0.2256
206.741	0.2251
207.124	0.2262
207.507	0.2317
207.89	0.2287
208.273	0.2267
208.655	0.2223
209.038	0.2184
209.421	0.2176
209.804	0.2177
210.186	0.2194
210.569	0.219
210.951	0.2192
211.334	0.218
211.717	0.2164
212.099	0.2153
212.482	0.2151
212.864	0.2171
213.246	0.2166
213.629	0.2139
214.011	0.2093
214.393	0.2106
214.776	0.2106
215.158	0.2109
215.54	0.2081
215.922	0.2081
216.305	0.2076
216.687	0.2057
217.069	0.2029
217.451	0.2044
217.833	0.2042
218.215	0.2056
218.597	0.2022
218.979	0.2014
219.361	0.2
219.742	0.1993
220.124	0.1974
220.506	0.1934
220.888	0.1929
221.27	0.1941
221.651	0.1967
222.033	0.1974
222.415	0.1967
222.796	0.1962
223.178	0.1943
223.559	0.1937
223.941	0.1929
224.322	0.1922
224.704	0.1908
225.085	0.1895
225.466	0.1896
225.848	0.1882
226.229	0.1863
226.61	0.1839
226.992	0.1829
227.373	0.1824
227.754	0.1808
228.135	0.1797
228.516	0.1792
228.897	0.1807
229.278	0.1786
229.659	0.1776
230.04	0.1768
230.421	0.177
230.802	0.1778
231.183	0.1761
231.564	0.1782
231.944	0.1762
232.325	0.1764
232.706	0.1738
233.087	0.1731
233.467	0.1707
233.848	0.1701
234.229	0.1685
234.609	0.1688
234.99	0.1679
235.37	0.1682
235.751	0.1668
236.131	0.1657
236.511	0.1657
236.892	0.1635
237.272	0.1639
237.652	0.1637
238.033	0.1636
238.413	0.1617
238.793	0.1606
239.173	0.1618
239.553	0.1607
239.933	0.1601
240.313	0.1599
240.694	0.1617
241.074	0.1593
241.453	0.1583
241.833	0.1548
242.213	0.1559
242.593	0.1548
242.973	0.1561
243.353	0.1558
243.732	0.1552
244.112	0.1536
244.492	0.15
244.872	0.1499
245.251	0.1504
245.631	0.1515
246.01	0.15
246.39	0.1486
246.769	0.1487
247.149	0.1477
247.528	0.148
247.908	0.1469
248.287	0.148
248.666	0.1459
249.045	0.1455
249.425	0.1445
249.804	0.1442
250.183	0.1426
250.562	0.1413
250.941	0.1397
251.32	0.1413
251.699	0.1425
252.078	0.143
252.457	0.1411
252.836	0.1388
253.215	0.1392
253.594	0.1391
253.973	0.1389
254.352	0.1375
254.731	0.1369
255.109	0.1365
255.488	0.1351
255.867	0.1335
256.245	0.1321
256.624	0.133
257.002	0.1338
257.381	0.1342
257.759	0.1344
258.138	0.1343
258.516	0.1345
258.895	0.1338
259.273	0.1329
259.651	0.1317
260.03	0.1302
260.408	0.1288
260.786	0.1284
261.164	0.1291
261.542	0.1303
261.921	0.1277
262.299	0.1255
262.677	0.1237
263.055	0.1246
263.433	0.1239
263.811	0.1245
264.188	0.1247
264.566	0.1259
264.944	0.1245
265.322	0.1231
265.7	0.1218
266.077	0.1214
266.455	0.1224
266.833	0.1223
267.21	0.1225
267.588	0.1198
267.966	0.1183
268.343	0.1181
268.721	0.1192
269.098	0.1209
269.475	0.1194
269.853	0.1172
270.23	0.1141
270.607	0.1151
270.985	0.1139
271.362	0.1134
271.739	0.1106
272.116	0.1116
272.494	0.1123
272.871	0.1111
273.248	0.1099
273.625	0.107
274.002	0.1065
274.379	0.1057
274.756	0.1058
275.132	0.1056
275.509	0.106
275.886	0.1062
276.263	0.1054
276.64	0.105
277.016	0.1021
277.393	0.1012
277.77	0.0999
278.146	0.1021
278.523	0.1014
278.899	0.1011
279.276	0.1009
279.652	0.1011
280.029	0.0995
280.405	0.0983
280.782	0.099
281.158	0.0993
281.534	0.0993
281.91	0.0966
282.287	0.0964
282.663	0.0953
283.039	0.0961
283.415	0.0953
283.791	0.0955
284.167	0.0944
284.543	0.0952
284.919	0.0938
285.295	0.0939
285.671	0.0918
286.047	0.0909
286.423	0.0902
286.799	0.089
287.174	0.0888
287.55	0.0887
287.926	0.0893
288.301	0.0887
288.677	0.0879
289.053	0.0873
289.428	0.086
289.804	0.0843
290.179	0.0838
290.555	0.0838
290.93	0.0837
291.305	0.0813
291.681	0.0802
292.056	0.0803
292.431	0.0814
292.806	0.0804
293.182	0.0799
293.557	0.0809
293.932	0.0823
294.307	0.0822
294.682	0.0794
295.057	0.0785
295.432	0.0786
295.807	0.0778
296.182	0.0759
296.557	0.075
296.932	0.0767
297.306	0.0786
297.681	0.0782
298.056	0.0772
298.43	0.0755
298.805	0.0728
299.18	0.0726
299.554	0.0719
299.929	0.0731
300.303	0.0718
300.678	0.0715
301.052	0.0715
301.427	0.0713
301.801	0.0696
302.175	0.069
302.55	0.0712
302.924	0.0743
303.298	0.0731
303.672	0.0692
304.046	0.0666
304.421	0.0676
304.795	0.0697
305.169	0.0684
305.543	0.067
305.917	0.0655
306.291	0.0668
306.664	0.0672
307.038	0.0654
307.412	0.0655
307.786	0.0655
308.16	0.066
308.533	0.064
308.907	0.0634
309.281	0.0651
309.654	0.0661
310.028	0.0649
310.401	0.0644
310.775	0.064
311.148	0.0654
311.522	0.0633
311.895	0.063
312.268	0.0613
312.642	0.0624
313.015	0.0629
313.388	0.0614
313.761	0.061
314.135	0.0589
314.508	0.0591
314.881	0.0572
315.254	0.0573
315.627	0.0561
316	0.0579
316.373	0.0576
316.746	0.0592
317.118	0.0575
317.491	0.056
317.864	0.0563
318.237	0.0559
318.61	0.0558
318.982	0.0539
319.355	0.0537
319.727	0.0521
320.1	0.0535
320.473	0.0528
320.845	0.0531
321.218	0.0504
321.59	0.0485
321.962	0.0487
322.335	0.0483
322.707	0.0497
323.079	0.0494
323.452	0.0501
323.824	0.0494
324.196	0.0489
324.568	0.0482
324.94	0.0482
325.312	0.0471
325.684	0.0458
326.056	0.0458
326.428	0.047
326.8	0.0485
327.172	0.0472
327.544	0.0467
327.915	0.0452
328.287	0.0461
328.659	0.0445
329.031	0.0453
329.402	0.044
329.774	0.0452
330.145	0.0435
330.517	0.0441
330.888	0.0437
331.26	0.0446
331.631	0.0426
332.003	0.0398
332.374	0.0396
332.745	0.0413
333.117	0.0419
333.488	0.0418
333.859	0.0414
334.23	0.0412
334.601	0.0403
334.972	0.0379
335.343	0.0379
335.714	0.0364
336.085	0.0364
336.456	0.0372
336.827	0.0373
337.198	0.037
337.569	0.0356
337.94	0.0356
338.31	0.0372
338.681	0.0379
339.052	0.0394
339.422	0.038
339.793	0.0373
340.164	0.0362
340.534	0.0367
340.905	0.0369
341.275	0.0359
341.645	0.0345
342.016	0.0343
342.386	0.0343
342.756	0.0355
343.127	0.0345
343.497	0.0356
343.867	0.0326
344.237	0.0312
344.607	0.0288
344.977	0.0299
345.347	0.0316
345.717	0.0334
346.087	0.0326
346.457	0.032
346.827	0.0311
347.197	0.0319
347.567	0.0301
347.936	0.0296
348.306	0.03
348.676	0.0315
349.046	0.0309
349.415	0.0318
349.785	0.0315
350.154	0.0304
350.524	0.0291
350.893	0.0274
351.263	0.0268
351.632	0.0256
352.001	0.0267
352.371	0.0292
352.74	0.0284
353.109	0.0276
353.478	0.0269
353.847	0.0284
354.217	0.0283
354.586	0.0273
354.955	0.0276
355.324	0.0278
355.693	0.0296
356.062	0.0265
356.43	0.0279
356.799	0.0253
357.168	0.026
357.537	0.0226
357.906	0.0233
358.274	0.0251
358.643	0.0258
359.011	0.0253
359.38	0.0218
359.749	0.0214
360.117	0.0217
360.486	0.0244
360.854	0.0247
361.222	0.0234
361.591	0.0208
361.959	0.0198
362.327	0.0193
362.695	0.0223
363.064	0.0255
363.432	0.024
363.8	0.0201
364.168	0.0169
364.536	0.0176
364.904	0.0191
365.272	0.02
365.64	0.0194
366.008	0.0185
366.376	0.0185
366.743	0.0188
367.111	0.0177
367.479	0.0157
367.847	0.0148
368.214	0.0177
368.582	0.0181
368.949	0.0198
369.317	0.0173
369.684	0.0188
370.052	0.0195
370.419	0.0198
370.787	0.0198
371.154	0.0197
371.521	0.0197
371.889	0.0166
372.256	0.0147
372.623	0.0146
372.99	0.0166
373.357	0.0161
373.724	0.0162
374.091	0.0158
374.458	0.016
374.825	0.0164
375.192	0.0156
375.559	0.0162
375.926	0.0161
376.293	0.0147
376.659	0.0156
377.026	0.0158
377.393	0.02
377.759	0.0189
378.126	0.0181
378.492	0.0147
378.859	0.0165
379.225	0.015
379.592	0.0159
379.958	0.0142
380.325	0.0138
380.691	0.0148
381.057	0.0146
381.423	0.0146
381.79	0.0142
382.156	0.0127
382.522	0.0132
382.888	0.0124
383.254	0.0121
383.62	0.0147
383.986	0.0128
384.352	0.0139
384.718	0.0113
385.084	0.0134
385.449	0.0141
385.815	0.0152
386.181	0.0156
386.547	0.0142
386.912	0.0119
387.278	0.0089
387.643	0.0077
388.009	0.0069
388.374	0.0067
388.74	0.0074
389.105	0.0079
389.471	0.0081
389.836	0.0089
390.201	0.0089
390.566	0.0096
390.932	0.0097
391.297	0.0116
391.662	0.011
392.027	0.0103
392.392	0.0095
392.757	0.0114
393.122	0.0126
393.487	0.0132
393.852	0.0116
394.217	0.0098
394.582	0.0093
394.946	0.0097
395.311	0.0094
395.676	0.0075
396.04	0.0066
396.405	0.0073
396.77	0.0077
397.134	0.0085
397.499	0.0072
397.863	0.0076
398.227	0.007
398.592	0.0086
398.956	0.0076
399.32	0.0068
399.685	0.006
400.049	0.0072
400.413	0.0081
400.777	0.0081
401.141	0.0078
401.505	0.0075
401.869	0.0087
402.233	0.01
402.597	0.011
402.961	0.0089
403.325	0.0088
403.689	0.0076
404.053	0.0086
404.416	0.0069
404.78	0.0081
405.144	0.0056
405.507	0.0065
405.871	0.006
406.234	0.0083
406.598	0.0077
406.961	0.0095
407.325	0.0106
407.688	0.0089
408.051	0.0089
408.415	0.006
408.778	0.0066
409.141	0.0032
409.504	0.0037
409.867	0.0044
410.23	0.006
410.593	0.0071
410.956	0.0054
411.319	0.0041
411.682	0.0036
412.045	0.0047
412.408	0.0079
412.771	0.0079
413.134	0.0072
413.496	0.004
413.859	0.0025
414.222	0.0037
414.584	0.0042
414.947	0.0061
415.309	0.007
415.672	0.0056
416.034	0.0039
416.396	0.0012
416.759	0.0012
417.121	0.0026
417.483	0.0066
417.846	0.0094
418.208	0.008
418.57	0.0055
418.932	0.0052
419.294	0.0061
419.656	0.0058
420.018	0.004
420.38	0.0046
420.742	0.004
421.104	0.0018
421.466	0.0014
421.827	0.0032
422.189	0.006
422.551	0.0041
422.912	0.0027
423.274	-0.0007
423.636	0.0006
423.997	0.001
424.359	0.0028
424.72	0.003
425.081	0.002
425.443	0.0013
425.804	0.0006
426.165	-0.0002
426.527	0.0015
426.888	0.0017
427.249	0.0027
427.61	0.0017
427.971	0.0025
428.332	0.0024
428.693	0.0047
429.054	0.0035
429.415	0.0027
429.776	0.002
430.137	0.0036
430.498	0.0038
430.858	0.0014
431.219	0.0007
431.58	0.0011
431.94	0.0042
432.301	0.0034
432.661	0.005
433.022	0.0029
433.382	0.0062
433.743	0.0055
434.103	0.0057
434.463	0.0029
434.824	0.0029
435.184	0.0025
435.544	0.0009
435.904	0.0001
436.264	-0.0002
436.624	0.0006
436.985	-0.0007
437.345	0.0014
437.704	0.0016
438.064	0.003
438.424	0.0008
438.784	0.0013
439.144	0.0004
439.504	-0.0006
439.863	-0.0007
440.223	0.0007
440.583	0.0043
440.942	0.0053
441.302	0.0053
441.661	0.0033
442.021	0.0026
442.38	0.0042
442.739	0.0041
443.099	0.0024
443.458	0.0032
443.817	0.0019
444.176	0.0036
444.536	-0.0018
444.895	-0.0008
445.254	0
445.613	0.0011
445.972	-0.0007
446.331	0.0007
446.69	0.0007
447.049	0.0019
447.407	-0.0006
447.766	0
448.125	0.001
448.484	0.0009
448.842	0.0021
449.201	-0.0001
449.559	-0.0006
449.918	-0.001
450.276	0.0012
450.635	0.0028
450.993	0.0008
451.352	-0.0007
451.71	-0.0024
452.068	0.0005
452.426	0.0006
452.785	0.0016
453.143	-0.0006
453.501	-0.0012
453.859	-0.0026
454.217	-0.0035
454.575	-0.0017
454.933	0.0004
455.291	0.0033
455.649	0.0042
456.006	-0.0002
456.364	-0.0015
456.722	-0.0031
457.079	0.0028
457.437	0.0015
457.795	0.0008
458.152	-0.0022
458.51	-0.0009
458.867	0.0019
459.225	0.0029
459.582	0.0025
459.939	-0.0001
460.297	0.0017
460.654	0.0005
461.011	0.0013
461.368	-0.0029
461.725	-0.0025
462.082	-0.0024
462.44	-0.0027
462.797	-0.0032
463.153	-0.0041
463.51	-0.0043
463.867	-0.0054
464.224	-0.0043
464.581	-0.0034
464.938	-0.001
465.294	-0.0004
465.651	-0.0008
466.008	-0.0024
466.364	-0.0018
466.721	-0.0025
467.077	0.0006
467.434	-0.0003
467.79	0.0008
468.146	-0.0022
468.503	-0.003
468.859	-0.004
469.215	0.0002
469.571	-0.0001
469.927	-0.0018
470.284	-0.0062
470.64	-0.0058
470.996	-0.0038
471.352	-0.001
471.707	-0.0005
472.063	0.0036
472.419	0.0044
472.775	0.0072
473.131	0.003
473.486	0.0016
473.842	-0.0022
474.198	0.0005
474.553	-0.0015
474.909	0.0005
475.264	0
475.62	0.0002
475.975	0.001
476.331	0.0015
476.686	0.0005
477.041	-0.0008
477.396	-0.0006
477.752	0.0025
478.107	0.0016
478.462	0.0018
478.817	-0.0024
479.172	-0.0017
479.527	-0.0042
479.882	-0.0009
480.237	-0.0026
480.591	-0.0041
480.946	-0.0051
481.301	-0.0033
481.656	-0.0016
482.01	-0.0021
482.365	-0.0039
482.72	-0.0062
483.074	-0.006
483.429	-0.0036
483.783	-0.0004
484.137	0.0003
484.492	0.0012
484.846	0.0012
485.2	0.0004
485.555	-0.004
485.909	-0.0048
486.263	-0.0031
486.617	-0.0013
486.971	-0.0031
487.325	-0.0023
487.679	-0.0022
488.033	-0.0013
488.387	-0.002
488.741	-0.0018
489.094	-0.0016
489.448	-0.0021
489.802	-0.0012
490.156	-0.0015
490.509	-0.0023
490.863	-0.0039
491.216	-0.0034
491.57	-0.0027
491.923	-0.0006
492.277	-0.0002
492.63	-0.0023
492.983	-0.0043
493.337	-0.0045
493.69	-0.0022
494.043	-0.0019
494.396	-0.0032
494.749	0.0009
495.102	0.0001
495.455	-0.0005
495.808	-0.0048
496.161	-0.0026
496.514	-0.0018
496.867	-0.0014
497.22	-0.0033
497.572	-0.0038
497.925	-0.0042
498.278	-0.0028
498.63	-0.0015
498.983	-0.0006
499.335	-0.0022
499.688	-0.0032
500.04	-0.0039
500.393	-0.0032
500.745	-0.0037
501.097	-0.0039
501.449	-0.0041
501.802	-0.0034
502.154	-0.0068
502.506	-0.0059
502.858	-0.0076
503.21	-0.0055
503.562	-0.0066
503.914	-0.0042
504.266	-0.004
504.618	-0.0025
504.969	-0.0048
505.321	-0.0034
505.673	-0.0043
506.025	-0.0009
506.376	-0.0005
506.728	0.0007
507.079	-0.0007
507.431	-0.0032
507.782	-0.0046
508.134	-0.0046
508.485	-0.0025
508.836	-0.0036
509.188	-0.0027
509.539	-0.0051
509.89	-0.0058
510.241	-0.0064
510.592	-0.0059
510.943	-0.0048
511.294	-0.0063
511.645	-0.0051
511.996	-0.0038
512.347	-0.0029
512.698	-0.0044
513.049	-0.0077
513.399	-0.0095
513.75	-0.0067
514.101	-0.0042
514.451	-0.0017
514.802	-0.0052
515.152	-0.0056
515.503	-0.006
515.853	-0.0048
516.203	-0.0035
516.554	0.0003
516.904	-0.0004
517.254	-0.001
517.604	-0.0044
517.955	-0.0057
518.305	-0.0053
518.655	-0.0056
519.005	-0.0047
519.355	-0.0042
519.705	-0.0025
520.055	-0.0008
520.404	-0.0027
520.754	-0.0059
521.104	-0.0083
521.454	-0.0065
521.803	-0.0045
522.153	-0.0036
522.502	-0.0034
522.852	-0.0042
523.201	-0.0041
523.551	-0.0069
523.9	-0.0059
524.249	-0.0056
524.599	-0.005
524.948	-0.0072
525.297	-0.009
525.646	-0.0093
525.995	-0.0072
526.344	-0.0029
526.694	-0.0015
527.042	-0.0016
527.391	-0.0025
527.74	-0.0024
528.089	-0.004
528.438	-0.0019
528.787	-0.0005
529.135	-0.0011
529.484	-0.0045
529.833	-0.0043
530.181	-0.0012
530.53	-0.0001
530.878	-0.0036
531.227	-0.0024
531.575	-0.0048
531.923	-0.0019
532.271	-0.0062
532.62	-0.0047
532.968	-0.0067
533.316	-0.0051
533.664	-0.0038
534.012	-0.0023
534.36	-0.0048
534.708	-0.0062
535.056	-0.0067
535.404	-0.0046
535.752	-0.0043
536.1	-0.0044
536.447	-0.0088
536.795	-0.0078
537.143	-0.0093
537.49	-0.0022
537.838	-0.0059
538.185	-0.0039
538.533	-0.0056
538.88	-0.0031
539.228	-0.007
539.575	-0.0068
539.922	-0.003
540.269	0.0001
540.617	-0.0017
540.964	-0.0054
541.311	-0.0051
541.658	-0.0075
542.005	-0.0063
542.352	-0.0087
542.699	-0.008
543.045	-0.0107
543.392	-0.0096
543.739	-0.0081
544.086	-0.0084
544.432	-0.0061
544.779	-0.0071
545.126	-0.0067
545.472	-0.0076
545.819	-0.0063
546.165	-0.0073
546.512	-0.0102
546.858	-0.0107
547.204	-0.0101
547.55	-0.0072
547.897	-0.0097
548.243	-0.0068
548.589	-0.0117
548.935	-0.0071
549.281	-0.0085
549.627	-0.003
549.973	-0.0046
550.319	-0.0044
550.665	-0.0074
551.01	-0.0083
551.356	-0.0087
551.702	-0.008
552.048	-0.0085
552.393	-0.0087
552.739	-0.0044
553.084	-0.0066
553.43	-0.0064
553.775	-0.0084
554.12	-0.0059
554.466	-0.0083
554.811	-0.0072
555.156	-0.0071
555.502	-0.0071
555.847	-0.0082
556.192	-0.008
556.537	-0.0077
556.882	-0.0081
557.227	-0.0087
557.572	-0.007
557.917	-0.0082
558.261	-0.0072
558.606	-0.0066
558.951	-0.0075
559.295	-0.0081
559.64	-0.0096
559.985	-0.0037
560.329	-0.0041
560.674	-0.0039
561.018	-0.0097
561.363	-0.0097
561.707	-0.0068
562.051	-0.0032
562.395	-0.0056
562.74	-0.0079
563.084	-0.0096
563.428	-0.008
563.772	-0.0094
564.116	-0.0109
564.46	-0.0128
564.804	-0.0137
565.148	-0.0102
565.492	-0.0109
565.835	-0.0091
566.179	-0.0127
566.523	-0.0091
566.866	-0.0076
567.21	-0.0058
567.554	-0.008
567.897	-0.0079
568.24	-0.0065
568.584	-0.0073
568.927	-0.0078
569.271	-0.0117
569.614	-0.0085
569.957	-0.0076
570.3	-0.0069
570.643	-0.0084
570.986	-0.011
571.329	-0.0084
571.672	-0.0097
572.015	-0.01
572.358	-0.0109
572.701	-0.0093
573.044	-0.0108
573.387	-0.0075
573.729	-0.0079
574.072	-0.0077
574.414	-0.0091
574.757	-0.0114
575.099	-0.0099
575.442	-0.0117
575.784	-0.0087
576.127	-0.009
576.469	-0.0101
576.811	-0.0093
577.153	-0.01
577.496	-0.0084
577.838	-0.0109
578.18	-0.0102
578.522	-0.0108
578.864	-0.0082
579.206	-0.0084
579.548	-0.0087
579.889	-0.0077
580.231	-0.0048
580.573	-0.0078
580.915	-0.009
581.256	-0.0121
581.598	-0.0112
581.939	-0.01
582.281	-0.0124
582.622	-0.0113
582.964	-0.0151
583.305	-0.0118
583.646	-0.0079
583.988	-0.0039
584.329	-0.0062
584.67	-0.0083
585.011	-0.0109
585.352	-0.0082
585.693	-0.0082
586.034	-0.0071
586.375	-0.0097
586.716	-0.0142
587.057	-0.0141
587.398	-0.0097
587.738	-0.008
588.079	-0.0084
588.42	-0.0104
588.76	-0.0116
589.101	-0.0126
589.441	-0.0102
589.782	-0.0091
590.122	-0.0102
590.463	-0.0121
590.803	-0.0122
591.143	-0.0135
591.483	-0.0155
591.823	-0.0138
592.164	-0.0079
592.504	-0.0047
592.844	-0.008
593.184	-0.0105
593.523	-0.0156
593.863	-0.0094
594.203	-0.0075
594.543	-0.0064
594.883	-0.008
595.222	-0.0069
595.562	-0.0066
595.901	-0.0081
596.241	-0.01
596.58	-0.009
596.92	-0.0106
597.259	-0.0101
597.599	-0.0081
597.938	-0.0066
598.277	-0.0079
598.616	-0.0107
598.955	-0.0089
599.295	-0.0104
599.634	-0.006
599.973	-0.0116
600.312	-0.0091
600.65	-0.0121
600.989	-0.0055
601.328	-0.002
601.667	-0.0044
602.005	-0.0076
602.344	-0.0094
602.683	-0.01
603.021	-0.0099
603.36	-0.0134
603.698	-0.0123
604.037	-0.0142
604.375	-0.0132
604.713	-0.0113
605.052	-0.0087
605.39	-0.0109
605.728	-0.0116
606.066	-0.0127
606.404	-0.0103
606.742	-0.0105
607.08	-0.0126
607.418	-0.0105
607.756	-0.0107
608.094	-0.0081
608.431	-0.0079
608.769	-0.0097
609.107	-0.0083
609.444	-0.0085
609.782	-0.0064
610.12	-0.0064
610.457	-0.01
610.794	-0.0099
611.132	-0.0111
611.469	-0.0074
611.806	-0.0084
612.144	-0.0067
612.481	-0.0064
612.818	-0.0077
613.155	-0.0106
613.492	-0.0137
613.829	-0.0114
614.166	-0.0113
614.503	-0.0106
614.84	-0.0124
615.176	-0.0099
615.513	-0.0066
615.85	-0.0032
616.187	-0.0027
616.523	-0.0047
616.86	-0.006
617.196	-0.0073
617.533	-0.0058
617.869	-0.0081
618.205	-0.0099
618.542	-0.0176
618.878	-0.0174
619.214	-0.0149
619.55	-0.0087
619.886	-0.0097
620.222	-0.0078
620.558	-0.0079
620.894	-0.0087
621.23	-0.0129
621.566	-0.0136
621.902	-0.0145
622.238	-0.0114
622.573	-0.0118
622.909	-0.0085
623.244	-0.0124
623.58	-0.0136
623.916	-0.0144
624.251	-0.0083
624.586	-0.0063
624.922	-0.0082
625.257	-0.0158
625.592	-0.0187
625.927	-0.0181
626.263	-0.0145
626.598	-0.0124
626.933	-0.0096
627.268	-0.0071
627.603	-0.0058
627.938	-0.0049
628.272	-0.0046
628.607	-0.0041
628.942	-0.0063
629.277	-0.0037
629.611	-0.0021
629.946	-0.0062
630.281	-0.011
630.615	-0.0149
630.949	-0.0117
631.284	-0.0089
631.618	-0.0074
631.953	-0.0066
632.287	-0.0089
632.621	-0.0103
632.955	-0.0108
633.289	-0.0105
633.623	-0.013
633.957	-0.014
634.291	-0.0116
634.625	-0.0121
634.959	-0.0133
635.293	-0.014
635.627	-0.0106
635.96	-0.0059
636.294	-0.0065
636.627	-0.0085
636.961	-0.0116
637.294	-0.0101
637.628	-0.0069
637.961	-0.0132
638.295	-0.0114
638.628	-0.0086
638.961	-0.0011
639.294	-0.0046
639.628	-0.0074
639.961	-0.0086
640.294	-0.0099
640.627	-0.0115
640.96	-0.0146
641.293	-0.0144
641.625	-0.0129
641.958	-0.0098
642.291	-0.0097
642.624	-0.0104
642.956	-0.0135
643.289	-0.0108
643.621	-0.0113
643.954	-0.0121
644.286	-0.0174
644.619	-0.0215
644.951	-0.0223
645.283	-0.0137
645.616	-0.0093
645.948	-0.0061
646.28	-0.0073
646.612	-0.0068
646.944	-0.0088
647.276	-0.0132
647.608	-0.0117
647.94	-0.006
648.272	-0.0007
648.603	0.0007
648.935	-0.0058
649.267	-0.0127
649.598	-0.0184
649.93	-0.0104
650.261	-0.0066
650.593	-0.0043
650.924	-0.0123
651.256	-0.0138
651.587	-0.0106
651.918	-0.0037
652.25	-0.0038
652.581	-0.0078
652.912	-0.0171
653.243	-0.0179
653.574	-0.0165
653.905	-0.0132
654.236	-0.0125
654.567	-0.0099
654.897	-0.0111
655.228	-0.0098
655.559	-0.01
655.89	-0.0057
656.22	-0.0071
656.551	-0.0054
656.881	-0.0006
657.212	0.0029
657.542	0.0035
657.872	-0.0001
658.203	0.0028
658.533	-0.0008
658.863	-0.0099
659.193	-0.0134
659.523	-0.021
659.853	-0.017
660.183	-0.0148
660.513	-0.0131
660.843	-0.0133
661.173	-0.0134
661.503	-0.0155
661.833	-0.0134
662.162	-0.0131
662.492	-0.008
662.822	-0.0118
663.151	-0.0127
663.481	-0.0174
663.81	-0.0144
664.139	-0.0143
664.469	-0.0142
664.798	-0.0134
665.127	-0.0101
665.456	-0.0076
665.785	-0.0086
666.114	-0.0101
666.443	-0.0071
666.772	-0.0001
667.101	0.0019
667.43	-0.0021
667.759	-0.0073
668.088	-0.0102
668.416	-0.0088
668.745	-0.0073
669.074	-0.0086
669.402	-0.0084
669.731	-0.0077
670.059	-0.01
670.388	-0.0099
670.716	-0.0145
671.044	-0.0095
671.372	-0.0089
671.701	-0.009
672.029	-0.0121
672.357	-0.0137
672.685	-0.0094
673.013	-0.0086
673.341	-0.0103
673.669	-0.0096
673.996	-0.0103
674.324	-0.0071
674.652	-0.0078
674.98	-0.0084
675.307	-0.0094
675.635	-0.0106
675.962	-0.0107
676.29	-0.0159
676.617	-0.0157
676.945	-0.0179
677.272	-0.0171
677.599	-0.0184
677.926	-0.014
678.253	-0.0134
678.581	-0.0114
678.908	-0.0136
679.235	-0.0108
679.561	-0.0142
679.888	-0.0119
680.215	-0.0101
680.542	-0.0027
680.869	-0.0024
681.195	-0.0025
681.522	-0.0066
681.849	-0.0038
682.175	-0.0054
682.502	-0.0098
682.828	-0.0156
683.154	-0.0168
683.481	-0.0146
683.807	-0.0141
684.133	-0.0136
684.459	-0.0103
684.785	-0.0093
685.111	-0.0098
685.437	-0.0139
685.763	-0.0143
686.089	-0.0134
686.415	-0.0099
686.741	-0.009
687.067	-0.0072
687.392	-0.0108
687.718	-0.0081
688.043	-0.013
688.369	-0.0115
688.694	-0.0151
689.02	-0.0075
689.345	-0.0058
689.67	0.0007
689.996	-0.007
690.321	-0.0084
690.646	-0.0113
690.971	-0.0062
691.296	-0.0024
691.621	-0.0031
691.946	-0.0051
692.271	-0.0041
692.596	-0.0059
692.921	-0.0066
693.245	-0.0144
693.57	-0.0126
693.895	-0.0146
694.219	-0.0129
694.544	-0.0168
694.868	-0.0184
695.193	-0.0182
695.517	-0.0137
695.841	-0.0068
696.166	-0.0047
696.49	-0.0093
696.814	-0.012
697.138	-0.0147
697.462	-0.0133
697.786	-0.012
698.11	-0.0081
698.434	-0.0071
698.758	-0.0119
699.081	-0.0116
699.405	-0.0124
699.729	-0.0091
700.052	-0.0094
700.376	-0.0069
700.7	-0.0024
701.023	-0.0056
701.346	-0.0103
701.67	-0.0175
701.993	-0.0096
702.316	-0.0058
702.639	-0.003
702.963	-0.006
703.286	-0.0075
703.609	-0.0059
703.932	-0.0099
704.255	-0.0106
704.578	-0.013
704.9	-0.0091
705.223	-0.0117
705.546	-0.0116
705.868	-0.0157
706.191	-0.0115
706.514	-0.0123
706.836	-0.0077
707.159	-0.0099
707.481	-0.0084
707.803	-0.0141
708.126	-0.0146
708.448	-0.0139
708.77	-0.0108
709.092	-0.0101
709.414	-0.0083
709.736	-0.0119
710.058	-0.0127
710.38	-0.0163
710.702	-0.0137
711.024	-0.0126
711.345	-0.0071
711.667	-0.0037
711.989	-0.0057
712.31	-0.0092
712.632	-0.0131
712.953	-0.0082
713.275	-0.0076
713.596	-0.0048
713.917	-0.0058
714.239	-0.0069
714.56	-0.002
714.881	-0.0053
715.202	-0.0068
715.523	-0.0164
715.844	-0.0163
716.165	-0.0163
716.486	-0.0131
716.807	-0.0108
717.128	-0.0093
717.448	-0.0081
717.769	-0.0093
718.09	-0.011
718.41	-0.0115
718.731	-0.0096
719.051	-0.0107
719.372	-0.0114
719.692	-0.0132
720.012	-0.0166
720.332	-0.0157
720.653	-0.0189
720.973	-0.0095
721.293	-0.0102
721.613	-0.0067
721.933	-0.0109
722.253	-0.0105
722.573	-0.0125
722.892	-0.0157
723.212	-0.0162
723.532	-0.0135
723.851	-0.014
724.171	-0.0146
724.491	-0.0193
724.81	-0.0185
725.129	-0.0209
725.449	-0.0201
725.768	-0.0202
726.087	-0.0157
726.407	-0.0127
726.726	-0.0125
727.045	-0.0106
727.364	-0.0104
727.683	-0.0051
728.002	-0.0027
728.321	-0.0045
728.64	-0.0088
728.958	-0.0154
729.277	-0.0097
729.596	-0.0065
729.914	-0.0061
730.233	-0.0088
730.551	-0.0105
730.87	-0.0073
731.188	-0.0058
731.507	-0.0058
731.825	-0.0082
732.143	-0.0115
732.461	-0.0086
732.779	-0.008
733.097	-0.0094
733.415	-0.0131
733.733	-0.0157
734.051	-0.0153
734.369	-0.0115
734.687	-0.0098
735.005	-0.009
735.322	-0.018
735.64	-0.0197
735.957	-0.0197
736.275	-0.0144
736.592	-0.0128
736.91	-0.0127
737.227	-0.0129
737.544	-0.0158
737.862	-0.019
738.179	-0.0164
738.496	-0.0105
738.813	-0.0082
739.13	-0.0112
739.447	-0.0137
739.764	-0.0132
740.081	-0.0144
740.398	-0.0168
740.714	-0.0161
741.031	-0.0157
741.348	-0.0169
741.664	-0.0129
741.981	-0.013
742.297	-0.0148
742.614	-0.0192
742.93	-0.0186
743.246	-0.0136
743.563	-0.0118
743.879	-0.0093
744.195	-0.0099
744.511	-0.013
744.827	-0.0167
745.143	-0.0142
745.459	-0.0118
745.775	-0.0111
746.091	-0.012
746.406	-0.0148
746.722	-0.0154
747.038	-0.0147
747.353	-0.0114
747.669	-0.0062
747.984	-0.003
748.3	-0.0005
748.615	-0.0054
748.93	-0.0082
749.246	-0.0097
749.561	-0.0088
749.876	-0.0074
750.191	-0.0089
750.506	-0.0111
750.821	-0.0141
751.136	-0.0168
751.451	-0.0082
751.766	-0.0121
752.08	-0.0126
752.395	-0.0223
752.71	-0.0169
753.024	-0.0182
753.339	-0.0169
753.653	-0.0174
753.968	-0.0158
754.282	-0.0087
754.596	-0.0072
754.911	-0.0109
755.225	-0.013
755.539	-0.009
755.853	-0.0008
756.167	-0.0036
756.481	-0.009
756.795	-0.017
757.109	-0.0125
757.423	-0.0174
757.736	-0.0128
758.05	-0.0154
758.364	-0.0093
758.677	-0.0067
758.991	-0.0077
759.304	-0.0123
759.618	-0.0141
759.931	-0.0136
760.244	-0.0079
760.558	-0.0098
760.871	-0.0098
761.184	-0.0143
761.497	-0.0147
761.81	-0.0178
762.123	-0.0176
762.436	-0.0193
762.749	-0.0157
763.062	-0.0113
763.374	-0.0085
763.687	-0.0087
764	-0.0152
764.312	-0.0123
764.625	-0.014
764.937	-0.0119
765.25	-0.0133
765.562	-0.0107
765.874	-0.0136
766.186	-0.0144
766.499	-0.0176
766.811	-0.0122
767.123	-0.0145
767.435	-0.01
767.747	-0.0082
768.059	-0.0057
768.37	-0.0119
768.682	-0.0154
768.994	-0.0151
769.306	-0.0065
769.617	-0.003
769.929	-0.0091
770.24	-0.0129
770.552	-0.013
770.863	-0.008
771.174	-0.0094
771.486	-0.0125
771.797	-0.0181
772.108	-0.021
772.419	-0.0232
772.73	-0.0185
773.041	-0.0145
773.352	-0.0095
773.663	-0.0061
773.974	-0.0056
774.285	-0.0104
774.595	-0.0107
774.906	-0.0129
775.217	-0.0081
775.527	-0.0061
775.838	-0.007
776.148	-0.0061
776.458	-0.0075
776.769	-0.0059
777.079	-0.0104
777.389	-0.0148
777.699	-0.0085
778.009	-0.0085
778.319	-0.0041
778.629	-0.0133
778.939	-0.0138
779.249	-0.0117
779.559	-0.0103
779.869	-0.0057
780.178	-0.0087
780.488	-0.01
780.798	-0.0137
781.107	-0.0212
781.417	-0.0196
781.726	-0.0163
782.035	-0.0069
782.345	-0.005
782.654	-0.0088
782.963	-0.0122
783.272	-0.0129
783.581	-0.0146
783.89	-0.0135
784.199	-0.0144
784.508	-0.0175
784.817	-0.0165
785.126	-0.0165
785.434	-0.0154
785.743	-0.0134
786.052	-0.0125
786.36	-0.0096
786.669	-0.018
786.977	-0.0181
787.285	-0.0104
787.594	-0.0047
787.902	-0.0067
788.21	-0.0174
788.518	-0.016
788.826	-0.0095
789.135	-0.0107
789.442	-0.0181
789.75	-0.0266
790.058	-0.0165
790.366	-0.0144
790.674	-0.013
790.981	-0.0169
791.289	-0.0134
791.597	-0.0113
791.904	-0.0085
792.212	-0.0079
792.519	-0.0097
792.826	-0.0107
793.134	-0.0152
793.441	-0.0125
793.748	-0.0111
794.055	-0.0094
794.362	-0.0086
794.669	-0.0095
794.976	-0.0062
795.283	-0.0133
795.59	-0.0099
795.897	-0.0109
796.203	-0.0066
796.51	-0.0063
796.817	-0.0091
797.123	-0.0091
797.43	-0.0135
797.736	-0.0102
798.042	-0.014
798.349	-0.0105
798.655	-0.0091
798.961	-0.0045
799.267	-0.0049
799.573	-0.0077
799.879	-0.0097
800.185	-0.0141
800.491	-0.0123
800.797	-0.0067
801.103	-0.0037
801.408	-0.0085
801.714	-0.0184
802.02	-0.0253
802.325	-0.0229
802.631	-0.0129
802.936	-0.0087
803.242	-0.0082
803.547	-0.0107
803.852	-0.0084
804.157	-0.008
804.462	-0.0133
804.768	-0.0115
805.073	-0.0214
805.378	-0.0186
805.682	-0.0198
805.987	-0.0174
806.292	-0.015
806.597	-0.0155
806.902	-0.006
807.206	-0.0129
807.511	-0.0061
807.815	-0.0094
808.12	-0.002
808.424	-0.0061
808.728	-0.0028
809.033	-0.0073
809.337	-0.0098
809.641	-0.0131
809.945	-0.0152
810.249	-0.0169
810.553	-0.0203
810.857	-0.0168
811.161	-0.0146
811.465	-0.0149
811.768	-0.0093
812.072	-0.0054
812.376	-0.0014
812.679	-0.0055
812.983	-0.0109
813.286	-0.0101
813.59	-0.0136
813.893	-0.0143
814.196	-0.0095
814.499	-0.009
814.803	-0.009
815.106	-0.0167
815.409	-0.0168
815.712	-0.0189
816.015	-0.0199
816.318	-0.0185
816.62	-0.0205
816.923	-0.0216
817.226	-0.0154
817.528	-0.0122
817.831	-0.0058
818.133	-0.0062
818.436	-0.0011
818.738	0.0016
819.041	-0.0054
819.343	-0.0118
819.645	-0.0234
819.947	-0.0217
820.249	-0.0163
820.551	-0.0082
820.853	-0.0014
821.155	-0.0055
821.457	-0.0141
821.759	-0.0242
822.061	-0.0241
822.362	-0.0238
822.664	-0.016
822.966	-0.0208
823.267	-0.0113
823.569	-0.0159
823.87	-0.0101
824.171	-0.0098
824.473	-0.0064
824.774	-0.0037
825.075	-0.009
825.376	-0.0142
825.677	-0.0167
825.978	-0.0198
826.279	-0.0111
826.58	-0.0093
826.881	-0.0041
827.181	-0.0033
827.482	0.0037
827.783	-0.0051
828.083	-0.0153
828.384	-0.0165
828.684	-0.0143
828.985	-0.0059
829.285	-0.0062
829.585	-0.0009
829.885	-0.005
830.185	0.0045
830.486	0.0026
830.786	0.0044
831.086	-0.0099
831.385	-0.0095
831.685	-0.0173
831.985	-0.0272
832.285	-0.0324
832.585	-0.0308
832.884	-0.0291
833.184	-0.0216
833.483	-0.0244
833.783	-0.0259
834.082	-0.0229
834.381	-0.0157
834.681	-0.0135
834.98	-0.0147
835.279	-0.0203
835.578	-0.0159
835.877	-0.0171
836.176	-0.0124
836.475	-0.0223
836.774	-0.0248
837.072	-0.0228
837.371	-0.0158
837.67	-0.0086
837.968	-0.006
838.267	0.0154
838.565	0.0147
838.864	0.007
839.162	-0.0134
839.46	-0.025
839.759	-0.0239
840.057	-0.0139
840.355	-0.0056
840.653	0
840.951	0.0055
841.249	0.0004
841.547	-0.0063
841.845	-0.0277
842.142	-0.0233
842.44	-0.0142
842.738	-0.0056
843.035	0.0025
843.333	-0.0044
843.63	-0.0044
843.928	-0.0155
844.225	-0.0208
844.522	-0.0302
844.82	-0.0182
845.117	-0.0005
845.414	-0.0014
845.711	-0.0111
846.008	-0.0173
846.305	-0.0087
846.602	-0.0156
846.898	-0.0136
847.195	-0.0092
847.492	-0.0095
847.788	-0.0131
848.085	-0.0194
848.382	-0.0031
848.678	-0.0229
848.974	-0.0092
849.271	-0.0236
849.567	-0.0128
849.863	-0.0169
850.159	-0.015
850.455	-0.0255
850.751	-0.0311
851.047	-0.0384
851.343	-0.0328
851.639	-0.027
851.935	-0.0268
852.23	-0.0089
852.526	-0.0177
852.822	0.0076
853.117	-0.0045
853.413	-0.0021
853.708	-0.0099
854.003	-0.0058
854.299	-0.0078
854.594	-0.0292
854.889	-0.0242
855.184	-0.0229
855.479	-0.0255
855.774	-0.0142
856.069	-0.0187
856.364	-0.0241
856.659	-0.0322
856.954	-0.023
857.248	-0.0069
857.543	-0.0188
857.837	-0.0331
858.132	-0.0171
858.426	-0.003
858.721	0.0005
859.015	-0.0114
859.309	-0.0219
859.604	-0.0258
859.898	-0.0194
860.192	-0.0189
860.486	-0.006
860.78	0.0048
861.074	0.0108
861.367	-0.0039
861.661	-0.0192
861.955	-0.0178
862.248	-0.001
862.542	0.0036
862.836	0.0068
863.129	-0.0022
863.422	-0.0099
863.716	-0.0241
864.009	-0.0124
864.302	-0.026
864.595	-0.0049
864.889	-0.0086
865.182	-0.0104
865.475	-0.0351
865.767	-0.0303
866.06	-0.0193
866.353	-0.0071
866.646	-0.0107
866.938	0.001
867.231	0.0087
867.524	0.0131
867.816	-0.0026
868.109	-0.0125
868.401	-0.0175
868.693	-0.0014
868.985	0.0078
869.278	0.0317
869.57	0.0098
869.862	0.014
870.154	-0.0013
870.446	0.0133
870.738	-0.0028
871.029	0.0153
871.321	0.0369
871.613	0.0303
871.904	0.0172
872.196	-0.0113
872.487	-0.0101
872.779	-0.0204
873.07	-0.0094
873.362	-0.0001
873.653	-0.0049
873.944	0.0078
874.235	0.006
874.526	0.0031
874.817	-0.0106
875.108	-0.0301
875.399	-0.0137
875.69	-0.0386
875.981	-0.0469
876.271	-0.0389
876.562	-0.0411
876.853	-0.0224
877.143	-0.0656
877.434	-0.0623
877.724	-0.0856
878.014	-0.07
878.305	-0.0574
878.595	-0.0415
878.885	-0.0559
879.175	-0.0596
879.465	-0.0448
879.755	-0.0095
880.045	0.014
880.335	0.0257
880.624	0.0178
880.914	0.0178
