Data from 42SS01BI_071517_1b_Absorbance_19-53-11-969.txt Node
Date: Tue Jul 18 19:53:11 MDT 2017
User: Tank Lab
Spectrometer: FLMS01220
Trigger mode: 0
Integration Time (sec): 1.000000E-1
Scans to average: 10
Electric dark correction enabled: true
Nonlinearity correction enabled: false
Boxcar width: 1
XAxis mode: Wavelengths
Number of Pixels in Spectrum: 2048
>>>>>Begin Spectral Data<<<<<
179.47	-0.0458
179.856	-0.0458
180.241	-0.0364
180.626	-0.2243
181.011	-0.1074
181.396	0.3352
181.781	0.6158
182.166	-0
182.551	0.6636
182.936	-0
183.321	-0
183.706	0.1563
184.091	-0
184.476	-0
184.86	-0
185.245	-0.4289
185.63	-0.0057
186.015	-0.4373
186.399	-0.8898
186.784	1.7426
187.169	0.242
187.553	0.0436
187.938	-0.059
188.322	0.048
188.707	0.0389
189.091	0.0417
189.475	0.0406
189.86	0.0641
190.244	0.0867
190.629	0.0979
191.013	0.1091
191.397	0.1296
191.781	0.1632
192.165	0.1877
192.55	0.1917
192.934	0.2063
193.318	0.224
193.702	0.2366
194.086	0.2233
194.47	0.2218
194.854	0.228
195.238	0.2427
195.622	0.2422
196.006	0.2308
196.389	0.2226
196.773	0.2212
197.157	0.2206
197.541	0.2189
197.924	0.212
198.308	0.2044
198.692	0.1942
199.075	0.1889
199.459	0.1881
199.843	0.1927
200.226	0.1895
200.61	0.1846
200.993	0.1801
201.376	0.177
201.76	0.1747
202.143	0.1772
202.527	0.1748
202.91	0.1749
203.293	0.169
203.676	0.1678
204.059	0.1633
204.443	0.1624
204.826	0.1652
205.209	0.1625
205.592	0.1591
205.975	0.1539
206.358	0.1548
206.741	0.1548
207.124	0.154
207.507	0.1559
207.89	0.1524
208.273	0.1517
208.655	0.1487
209.038	0.1495
209.421	0.1483
209.804	0.1496
210.186	0.1486
210.569	0.1491
210.951	0.1447
211.334	0.1432
211.717	0.1436
212.099	0.1438
212.482	0.1435
212.864	0.1408
213.246	0.1382
213.629	0.1374
214.011	0.1343
214.393	0.1349
214.776	0.1316
215.158	0.1317
215.54	0.127
215.922	0.1261
216.305	0.1239
216.687	0.1233
217.069	0.1196
217.451	0.1169
217.833	0.1154
218.215	0.1155
218.597	0.1141
218.979	0.111
219.361	0.1104
219.742	0.1075
220.124	0.108
220.506	0.1056
220.888	0.1045
221.27	0.1007
221.651	0.0965
222.033	0.0948
222.415	0.0934
222.796	0.0929
223.178	0.0903
223.559	0.0884
223.941	0.0853
224.322	0.0836
224.704	0.0838
225.085	0.0826
225.466	0.0806
225.848	0.0764
226.229	0.0766
226.61	0.0765
226.992	0.0768
227.373	0.073
227.754	0.0702
228.135	0.0677
228.516	0.0674
228.897	0.0661
229.278	0.067
229.659	0.0651
230.04	0.0636
230.421	0.0609
230.802	0.0591
231.183	0.0597
231.564	0.0599
231.944	0.0601
232.325	0.0569
232.706	0.0543
233.087	0.0534
233.467	0.0548
233.848	0.054
234.229	0.0533
234.609	0.0512
234.99	0.0499
235.37	0.0496
235.751	0.0498
236.131	0.0498
236.511	0.0483
236.892	0.0489
237.272	0.0465
237.652	0.0458
238.033	0.0427
238.413	0.0438
238.793	0.0436
239.173	0.045
239.553	0.0449
239.933	0.0456
240.313	0.0441
240.694	0.0435
241.074	0.0418
241.453	0.043
241.833	0.0431
242.213	0.0435
242.593	0.0428
242.973	0.0432
243.353	0.0437
243.732	0.0428
244.112	0.0422
244.492	0.0402
244.872	0.0401
245.251	0.0403
245.631	0.0416
246.01	0.0405
246.39	0.0388
246.769	0.0387
247.149	0.0388
247.528	0.039
247.908	0.038
248.287	0.0394
248.666	0.0397
249.045	0.0399
249.425	0.0393
249.804	0.037
250.183	0.038
250.562	0.0368
250.941	0.0387
251.32	0.0375
251.699	0.0384
252.078	0.0376
252.457	0.0375
252.836	0.0361
253.215	0.0364
253.594	0.0359
253.973	0.0361
254.352	0.0354
254.731	0.0361
255.109	0.0368
255.488	0.037
255.867	0.0359
256.245	0.0349
256.624	0.0343
257.002	0.034
257.381	0.0338
257.759	0.0347
258.138	0.0354
258.516	0.0351
258.895	0.0351
259.273	0.0353
259.651	0.0353
260.03	0.0351
260.408	0.0354
260.786	0.0363
261.164	0.0355
261.542	0.0341
261.921	0.0345
262.299	0.0342
262.677	0.0347
263.055	0.0343
263.433	0.0348
263.811	0.0354
264.188	0.033
264.566	0.0329
264.944	0.0323
265.322	0.0345
265.7	0.0343
266.077	0.0341
266.455	0.032
266.833	0.0329
267.21	0.0323
267.588	0.0338
267.966	0.0321
268.343	0.0312
268.721	0.0315
269.098	0.0332
269.475	0.0344
269.853	0.0345
270.23	0.0333
270.607	0.0335
270.985	0.0322
271.362	0.031
271.739	0.0306
272.116	0.0301
272.494	0.0306
272.871	0.0302
273.248	0.0297
273.625	0.0299
274.002	0.0287
274.379	0.0304
274.756	0.0301
275.132	0.0295
275.509	0.0284
275.886	0.0282
276.263	0.0298
276.64	0.028
277.016	0.0272
277.393	0.0268
277.77	0.0268
278.146	0.0272
278.523	0.0269
278.899	0.0286
279.276	0.0295
279.652	0.0297
280.029	0.0296
280.405	0.0299
280.782	0.03
281.158	0.0297
281.534	0.029
281.91	0.0284
282.287	0.0283
282.663	0.028
283.039	0.0306
283.415	0.0303
283.791	0.0308
284.167	0.0283
284.543	0.0288
284.919	0.0287
285.295	0.028
285.671	0.0276
286.047	0.0277
286.423	0.0285
286.799	0.0282
287.174	0.0275
287.55	0.0261
287.926	0.0272
288.301	0.0262
288.677	0.0269
289.053	0.0251
289.428	0.0262
289.804	0.0268
290.179	0.0261
290.555	0.0262
290.93	0.0245
291.305	0.025
291.681	0.0238
292.056	0.0248
292.431	0.0247
292.806	0.0252
293.182	0.026
293.557	0.0267
293.932	0.0279
294.307	0.0259
294.682	0.0256
295.057	0.0234
295.432	0.024
295.807	0.0234
296.182	0.0243
296.557	0.0229
296.932	0.0234
297.306	0.0225
297.681	0.0236
298.056	0.0242
298.43	0.025
298.805	0.0245
299.18	0.0227
299.554	0.0218
299.929	0.0234
300.303	0.025
300.678	0.0254
301.052	0.0253
301.427	0.024
301.801	0.0246
302.175	0.0237
302.55	0.0239
302.924	0.0242
303.298	0.0239
303.672	0.0243
304.046	0.0228
304.421	0.0232
304.795	0.0231
305.169	0.0229
305.543	0.0224
305.917	0.0225
306.291	0.0222
306.664	0.0236
307.038	0.0227
307.412	0.0227
307.786	0.0212
308.16	0.0229
308.533	0.0238
308.907	0.0254
309.281	0.0237
309.654	0.0236
310.028	0.0223
310.401	0.0223
310.775	0.0231
311.148	0.0226
311.522	0.0222
311.895	0.021
312.268	0.0205
312.642	0.0218
313.015	0.0218
313.388	0.0211
313.761	0.0202
314.135	0.018
314.508	0.0198
314.881	0.0188
315.254	0.0218
315.627	0.0226
316	0.0233
316.373	0.0234
316.746	0.0213
317.118	0.0225
317.491	0.0224
317.864	0.0227
318.237	0.0217
318.61	0.0211
318.982	0.0219
319.355	0.0215
319.727	0.0207
320.1	0.0205
320.473	0.0209
320.845	0.0207
321.218	0.0219
321.59	0.0213
321.962	0.0208
322.335	0.018
322.707	0.0169
323.079	0.0184
323.452	0.0196
323.824	0.0223
324.196	0.0213
324.568	0.0216
324.94	0.0193
325.312	0.0218
325.684	0.0215
326.056	0.0224
326.428	0.0194
326.8	0.0184
327.172	0.0183
327.544	0.0178
327.915	0.0183
328.287	0.017
328.659	0.0178
329.031	0.0177
329.402	0.0189
329.774	0.0186
330.145	0.0188
330.517	0.0178
330.888	0.0172
331.26	0.0153
331.631	0.0156
332.003	0.0158
332.374	0.017
332.745	0.0172
333.117	0.017
333.488	0.0191
333.859	0.018
334.23	0.0185
334.601	0.0163
334.972	0.0164
335.343	0.0176
335.714	0.0183
336.085	0.0183
336.456	0.0175
336.827	0.0165
337.198	0.0158
337.569	0.0145
337.94	0.0154
338.31	0.0152
338.681	0.0153
339.052	0.0136
339.422	0.0145
339.793	0.0165
340.164	0.0166
340.534	0.0145
340.905	0.0143
341.275	0.0166
341.645	0.0194
342.016	0.018
342.386	0.017
342.756	0.015
343.127	0.0145
343.497	0.0126
343.867	0.0144
344.237	0.014
344.607	0.0142
344.977	0.0133
345.347	0.0142
345.717	0.0141
346.087	0.0137
346.457	0.0136
346.827	0.0117
347.197	0.0125
347.567	0.0104
347.936	0.0135
348.306	0.0142
348.676	0.0169
349.046	0.0178
349.415	0.0159
349.785	0.0146
350.154	0.0124
350.524	0.0136
350.893	0.0138
351.263	0.0131
351.632	0.0125
352.001	0.0138
352.371	0.016
352.74	0.0163
353.109	0.0139
353.478	0.0144
353.847	0.0143
354.217	0.016
354.586	0.0148
354.955	0.0151
355.324	0.0148
355.693	0.015
356.062	0.0147
356.43	0.0152
356.799	0.0151
357.168	0.0141
357.537	0.0136
357.906	0.0122
358.274	0.0141
358.643	0.0132
359.011	0.0125
359.38	0.0123
359.749	0.0117
360.117	0.0132
360.486	0.0116
360.854	0.0124
361.222	0.0113
361.591	0.0112
361.959	0.0103
362.327	0.0113
362.695	0.0104
363.064	0.0103
363.432	0.0085
363.8	0.0097
364.168	0.0112
364.536	0.0114
364.904	0.0116
365.272	0.0119
365.64	0.0134
366.008	0.013
366.376	0.0124
366.743	0.0123
367.111	0.0132
367.479	0.013
367.847	0.0125
368.214	0.012
368.582	0.0116
368.949	0.0126
369.317	0.0136
369.684	0.0134
370.052	0.013
370.419	0.0136
370.787	0.0152
371.154	0.0134
371.521	0.0116
371.889	0.0098
372.256	0.0111
372.623	0.0104
372.99	0.0093
373.357	0.0087
373.724	0.0099
374.091	0.0079
374.458	0.0065
374.825	0.0054
375.192	0.0087
375.559	0.01
375.926	0.0098
376.293	0.0117
376.659	0.0105
377.026	0.0095
377.393	0.0081
377.759	0.0081
378.126	0.0097
378.492	0.0087
378.859	0.0106
379.225	0.0099
379.592	0.009
379.958	0.007
380.325	0.0072
380.691	0.0061
381.057	0.0092
381.423	0.0093
381.79	0.014
382.156	0.0139
382.522	0.0124
382.888	0.0094
383.254	0.0077
383.62	0.0088
383.986	0.0097
384.352	0.0087
384.718	0.0085
385.084	0.0115
385.449	0.0122
385.815	0.0111
386.181	0.0086
386.547	0.0085
386.912	0.0084
387.278	0.0065
387.643	0.007
388.009	0.0078
388.374	0.0079
388.74	0.0074
389.105	0.0094
389.471	0.0104
389.836	0.0124
390.201	0.011
390.566	0.0124
390.932	0.0112
391.297	0.0099
391.662	0.0078
392.027	0.0054
392.392	0.0059
392.757	0.0059
393.122	0.0074
393.487	0.0064
393.852	0.0072
394.217	0.0099
394.582	0.0141
394.946	0.0159
395.311	0.0132
395.676	0.0121
396.04	0.0061
396.405	0.0052
396.77	0.003
397.134	0.0063
397.499	0.0064
397.863	0.0053
398.227	0.0036
398.592	0.0039
398.956	0.0051
399.32	0.0081
399.685	0.0079
400.049	0.0114
400.413	0.0125
400.777	0.013
401.141	0.0149
401.505	0.0141
401.869	0.0122
402.233	0.0057
402.597	0.0041
402.961	0.0039
403.325	0.0067
403.689	0.007
404.053	0.0108
404.416	0.0077
404.78	0.0072
405.144	0.0037
405.507	0.007
405.871	0.0062
406.234	0.0084
406.598	0.0058
406.961	0.0064
407.325	0.0049
407.688	0.0039
408.051	0.0064
408.415	0.0069
408.778	0.0088
409.141	0.006
409.504	0.0068
409.867	0.0061
410.23	0.0041
410.593	0.0033
410.956	0.0057
411.319	0.0106
411.682	0.0098
412.045	0.0089
412.408	0.0056
412.771	0.0068
413.134	0.0052
413.496	0.006
413.859	0.0057
414.222	0.0063
414.584	0.0067
414.947	0.0073
415.309	0.0074
415.672	0.0082
416.034	0.0064
416.396	0.0077
416.759	0.0069
417.121	0.0084
417.483	0.008
417.846	0.0101
418.208	0.0096
418.57	0.0098
418.932	0.0066
419.294	0.0085
419.656	0.0052
420.018	0.0075
420.38	0.0048
420.742	0.0057
421.104	0.0038
421.466	0.003
421.827	0.0051
422.189	0.005
422.551	0.0058
422.912	0.0062
423.274	0.0093
423.636	0.0104
423.997	0.0107
424.359	0.0084
424.72	0.008
425.081	0.0059
425.443	0.0054
425.804	0.0052
426.165	0.0049
426.527	0.0021
426.888	0.0017
427.249	0.0025
427.61	0.0071
427.971	0.0056
428.332	0.0053
428.693	0.0022
429.054	0.0014
429.415	0.0013
429.776	0.0017
430.137	0.0032
430.498	0.0032
430.858	0.0055
431.219	0.0093
431.58	0.0093
431.94	0.0104
432.301	0.0106
432.661	0.0098
433.022	0.0066
433.382	0.0057
433.743	0.0048
434.103	0.0063
434.463	0.0016
434.824	0.0006
435.184	0.0014
435.544	0.0026
435.904	0.0038
436.264	0.0014
436.624	0.0041
436.985	0.005
437.345	0.0071
437.704	0.0044
438.064	0.0052
438.424	0.002
438.784	0.0044
439.144	0.0092
439.504	0.0097
439.863	0.0064
440.223	0.0007
440.583	0.0031
440.942	0.0072
441.302	0.0085
441.661	0.0053
442.021	0.0027
442.38	0.0018
442.739	0.0031
443.099	0.0025
443.458	0.0016
443.817	0.0049
444.176	0.0085
444.536	0.0081
444.895	0.006
445.254	0.0028
445.613	0.0043
445.972	0.004
446.331	0.0049
446.69	0.0018
447.049	0.0016
447.407	0.0008
447.766	0.0029
448.125	0.001
448.484	0.0008
448.842	0.0049
449.201	0.0063
449.559	0.0068
449.918	0.0021
450.276	0.004
450.635	0.0075
450.993	0.0059
451.352	0.0049
451.71	-0.0007
452.068	0.0033
452.426	0.0037
452.785	0.0056
453.143	0.0053
453.501	0.0061
453.859	0.0074
454.217	0.0052
454.575	0.004
454.933	0.005
455.291	0.0058
455.649	0.0039
456.006	0.0019
456.364	0.0047
456.722	0.0019
457.079	0.004
457.437	0.0028
457.795	0.0077
458.152	0.0061
458.51	0.0042
458.867	0.0011
459.225	0.0024
459.582	0.0036
459.939	0.004
460.297	0.0006
460.654	-0.0004
461.011	0.0027
461.368	0.0053
461.725	0.0071
462.082	0.0053
462.44	0.0075
462.797	0.0059
463.153	0.0069
463.51	0.0058
463.867	0.0067
464.224	0.0044
464.581	-0.0009
464.938	-0.002
465.294	-0.0003
465.651	0.0034
466.008	0.0049
466.364	0.0047
466.721	0.0059
467.077	0.0055
467.434	0.0051
467.79	0.0045
468.146	0.005
468.503	0.01
468.859	0.0048
469.215	0.0023
469.571	-0.0019
469.927	0.0019
470.284	-0.0001
470.64	0.0036
470.996	0.0064
471.352	0.0112
471.707	0.007
472.063	0.005
472.419	0.0038
472.775	0.0001
473.131	0.0014
473.486	0.002
473.842	0.005
474.198	0.0032
474.553	0.0046
474.909	0.0068
475.264	0.01
475.62	0.0091
475.975	0.009
476.331	0.0079
476.686	0.007
477.041	0.0043
477.396	0.006
477.752	0.0083
478.107	0.01
478.462	0.0061
478.817	0.0046
479.172	0.0057
479.527	0.0077
479.882	0.0061
480.237	0.004
480.591	0.0015
480.946	0.002
481.301	0.0021
481.656	0.0017
482.01	0.0013
482.365	0.0013
482.72	0.0033
483.074	0.0061
483.429	0.0057
483.783	0.0047
484.137	0.0074
484.492	0.0064
484.846	0.0068
485.2	-0.0002
485.555	-0.0009
485.909	0
486.263	0.0021
486.617	0.0038
486.971	0.004
487.325	0.0064
487.679	0.0089
488.033	0.0041
488.387	0.0083
488.741	0.0086
489.094	0.0047
489.448	-0.0012
489.802	0.0008
490.156	0.0075
490.509	0.0023
490.863	-0.0028
491.216	-0.0009
491.57	0.0047
491.923	0.0047
492.277	0.0013
492.63	-0.0006
492.983	0.0003
493.337	-0.0005
493.69	0.0018
494.043	0.0026
494.396	0.0043
494.749	0.0033
495.102	0.0005
495.455	0.0024
495.808	-0.0005
496.161	0.004
496.514	0.0017
496.867	0.0054
497.22	0.0029
497.572	0.0016
497.925	0.0004
498.278	-0.001
498.63	0.006
498.983	0.0082
499.335	0.0086
499.688	-0.0008
500.04	-0.003
500.393	-0.0047
500.745	-0.0001
501.097	0.0006
501.449	0.0001
501.802	-0.0023
502.154	-0.0016
502.506	-0.0027
502.858	0.0007
503.21	-0.0008
503.562	0.003
503.914	0.006
504.266	0.0072
504.618	0.004
504.969	0.0028
505.321	-0.0017
505.673	0.0008
506.025	0.0001
506.376	0.0041
506.728	0.0022
507.079	-0.0003
507.431	-0.0002
507.782	0.0026
508.134	0.0037
508.485	0.0019
508.836	-0.001
509.188	0.0007
509.539	0.0027
509.89	0.0021
510.241	-0.0018
510.592	0.0032
510.943	0.0021
511.294	0.0045
511.645	-0.0042
511.996	-0.0013
512.347	-0.0014
512.698	0.0024
513.049	0.0015
513.399	0.0008
513.75	-0.0019
514.101	0.0013
514.451	0.0022
514.802	0.0045
515.152	0.0028
515.503	0.0027
515.853	-0.0005
516.203	-0.004
516.554	-0.0048
516.904	0.0001
517.254	0.0045
517.604	0.0041
517.955	0.0007
518.305	0.0006
518.655	0.0025
519.005	0.0032
519.355	0.0042
519.705	0.0012
520.055	0.002
520.404	0.0004
520.754	0.0029
521.104	0.0046
521.454	0.0071
521.803	0.0074
522.153	0.0031
522.502	-0.0018
522.852	-0.0061
523.201	-0.0048
523.551	-0.0032
523.9	0.0019
524.249	0.0039
524.599	0.0014
524.948	0.0001
525.297	0.0015
525.646	0.0031
525.995	0.0004
526.344	-0.0022
526.694	0.0011
527.042	0.0011
527.391	-0.0008
527.74	-0.0018
528.089	0.0003
528.438	0.0038
528.787	0.0033
529.135	0.0048
529.484	0.0046
529.833	0.0049
530.181	0.002
530.53	0
530.878	-0.0031
531.227	0.0012
531.575	0.0044
531.923	0.0026
532.271	-0.0022
532.62	-0.0041
532.968	-0.0018
533.316	-0.0003
533.664	0.0011
534.012	0.0032
534.36	0.0056
534.708	0.001
535.056	-0.0019
535.404	-0.0084
535.752	-0.0037
536.1	-0.0019
536.447	0.0018
536.795	0.0019
537.143	0.0041
537.49	0.0022
537.838	-0.0003
538.185	-0.0031
538.533	-0.0013
538.88	-0.0024
539.228	-0.0026
539.575	-0.0025
539.922	-0.0009
540.269	0.006
540.617	0.0039
540.964	0.0022
541.311	-0.0004
541.658	0.0033
542.005	0.005
542.352	0.0012
542.699	-0.0007
543.045	-0.0035
543.392	-0.001
543.739	-0.0022
544.086	-0.0002
544.432	-0.0022
544.779	0.0013
545.126	0.0012
545.472	-0.0002
545.819	-0.0046
546.165	-0.0027
546.512	0.0003
546.858	0.0052
547.204	0.0042
547.55	0.0009
547.897	-0.0011
548.243	-0.0082
548.589	-0.0033
548.935	-0.0063
549.281	0.0012
549.627	-0.0016
549.973	0.0039
550.319	0.0044
550.665	0.0075
551.01	0.0018
551.356	-0.0039
551.702	-0.0103
552.048	-0.014
552.393	-0.0099
552.739	-0.0048
553.084	0.0026
553.43	0.0009
553.775	-0.0012
554.12	-0.0027
554.466	0.0032
554.811	0.0046
555.156	0.0062
555.502	0.0064
555.847	0.0029
556.192	0.0014
556.537	-0.0032
556.882	-0.001
557.227	-0.0069
557.572	-0.0032
557.917	0.0058
558.261	0.0047
558.606	-0.0015
558.951	-0.0094
559.295	-0.0067
559.64	-0.0013
559.985	-0.0012
560.329	0.0016
560.674	-0.0013
561.018	-0.0057
561.363	-0.0051
561.707	-0.0062
562.051	-0.0022
562.395	0.0032
562.74	0.006
563.084	0.0068
563.428	0.0049
563.772	0.0029
564.116	-0.0003
564.46	-0.0044
564.804	0.0023
565.148	-0.001
565.492	0.0048
565.835	0.0035
566.179	0.0089
566.523	-0.002
566.866	-0.0081
567.21	-0.0089
567.554	-0.0016
567.897	-0.0006
568.24	-0.0067
568.584	-0.0081
568.927	-0.0055
569.271	-0.001
569.614	0.0019
569.957	0.0036
570.3	0.0096
570.643	0.0062
570.986	0.0018
571.329	0.0029
571.672	0.005
572.015	0.0041
572.358	0.0017
572.701	0.0076
573.044	0.0041
573.387	0.0033
573.729	0.0022
574.072	0.0062
574.414	0.0079
574.757	0.009
575.099	-0.0034
575.442	-0.0117
575.784	0.0003
576.127	0.0104
576.469	0.011
576.811	-0.0016
577.153	-0.0005
577.496	0
577.838	0.0025
578.18	-0.0098
578.522	-0.0094
578.864	-0.012
579.206	0.0125
579.548	0.014
579.889	0.0029
580.231	0.0116
580.573	0.0214
580.915	0.0167
581.256	-0.0053
581.598	-0.0226
581.939	-0.0243
582.281	0.0005
582.622	-0.0013
582.964	0.0057
583.305	-0.0054
583.646	0.0068
583.988	0.0405
584.329	0.0259
584.67	0.0113
585.011	-0.0179
585.352	-0.0257
585.693	-0.0147
586.034	-0.0203
586.375	-0.0137
586.716	-0.0085
587.057	0.0014
587.398	0.0142
587.738	0.0228
588.079	0.0106
588.42	0.0045
588.76	-0.0172
589.101	-0.0122
589.441	-0.0157
589.782	-0.0018
590.122	0.0078
590.463	0.0078
590.803	-0.002
591.143	-0.0025
591.483	-0.0075
591.823	-0.0115
592.164	-0.0144
592.504	-0.0019
592.844	0.0041
593.184	-0.0017
593.523	-0.0124
593.863	-0.0097
594.203	-0.0016
594.543	0.0086
594.883	-0.0009
595.222	0.0054
595.562	0.0203
595.901	0.0211
596.241	0.0085
596.58	-0.0105
596.92	-0.0174
597.259	-0.0208
597.599	-0.0113
597.938	0.0058
598.277	0.0066
598.616	-0.0044
598.955	-0.0116
599.295	-0.0072
599.634	0.0066
599.973	0.0111
600.312	0.0161
600.65	0.0017
600.989	0.001
601.328	0.0052
601.667	0.0258
602.005	0.0099
602.344	0.0011
602.683	-0.003
603.021	0.0055
603.36	-0.0041
603.698	-0.0128
604.037	-0.0156
604.375	-0.0099
604.713	-0.0154
605.052	-0.0102
605.39	-0.008
605.728	-0.0024
606.066	0.0155
606.404	0.0167
606.742	0.0099
607.08	-0.0024
607.418	-0.0131
607.756	-0.0042
608.094	0
608.431	0.0068
608.769	0.0103
609.107	-0.0058
609.444	0.0024
609.782	-0.0068
610.12	0.0097
610.457	0.0017
610.794	-0.0106
611.132	-0.0133
611.469	-0.0131
611.806	-0.0069
612.144	-0.016
612.481	-0.0047
612.818	0.0084
613.155	0.0014
613.492	-0.0074
613.829	-0.0106
614.166	0.0053
614.503	0.0033
614.84	-0.0037
615.176	-0.007
615.513	-0.0017
615.85	0.0003
616.187	0.0053
616.523	-0.0015
616.86	-0.0032
617.196	0.0039
617.533	0.0213
617.869	0.0157
618.205	0.0031
618.542	-0.0154
618.878	-0.019
619.214	-0.0107
619.55	-0.0062
619.886	-0.0004
620.222	-0.0135
620.558	-0.0067
620.894	0.0031
621.23	0.0047
621.566	-0.0016
621.902	-0.0073
622.238	-0.0122
622.573	0.0062
622.909	-0.0002
623.244	0.0061
623.58	-0.0172
623.916	-0.0193
624.251	-0.0053
624.586	0.0159
624.922	0.0181
625.257	-0.0032
625.592	-0.0147
625.927	-0.0125
626.263	-0.009
626.598	-0.0044
626.933	-0.0021
627.268	0.0054
627.603	-0.003
627.938	-0.0098
628.272	-0.006
628.607	-0.0052
628.942	-0.0009
629.277	-0.0097
629.611	-0.0003
629.946	0.0077
630.281	0.0055
630.615	-0
630.949	-0.0151
631.284	-0.0119
631.618	-0.0049
631.953	0.0064
632.287	0.005
632.621	-0.0049
632.955	-0.008
633.289	-0.0056
633.623	-0.0042
633.957	-0.0044
634.291	-0.0079
634.625	-0.0037
634.959	-0.0057
635.293	0.0061
635.627	0.0114
635.96	0.0122
636.294	0.0015
636.627	-0.0023
636.961	0.0052
637.294	0.0047
637.628	-0.0012
637.961	-0.0078
638.295	-0.0043
638.628	0.0026
638.961	0.0057
639.294	0.0056
639.628	-0.0035
639.961	-0.014
640.294	-0.0144
640.627	-0.0072
640.96	-0.0001
641.293	0.0007
641.625	-0.0011
641.958	-0.0055
642.291	-0.0106
642.624	-0.01
642.956	-0.006
643.289	-0.004
643.621	-0.0027
643.954	-0.0012
644.286	0.0004
644.619	-0.0016
644.951	-0.0028
645.283	-0.0051
645.616	-0.002
645.948	0.0013
646.28	0.0086
646.612	0.0055
646.944	0.0049
647.276	-0.0013
647.608	0.0021
647.94	0.0005
648.272	0.0019
648.603	0.0007
648.935	0.0018
649.267	0.0032
649.598	0.0017
649.93	-0.0011
650.261	0.0025
650.593	0.0093
650.924	0.0192
651.256	0.0173
651.587	0.0069
651.918	0.0001
652.25	-0.0044
652.581	-0.0045
652.912	-0.0062
653.243	-0.0044
653.574	-0.0007
653.905	-0.0001
654.236	-0.0048
654.567	-0.0027
654.897	-0.0046
655.228	-0.0029
655.559	0.0013
655.89	0.0059
656.22	-0.0006
656.551	-0.0087
656.881	-0.0163
657.212	-0.0079
657.542	-0.0062
657.872	0.0027
658.203	0.0093
658.533	0.1273
658.863	0.0723
659.193	0.0188
659.523	-0.0399
659.853	-0.0962
660.183	-0.0532
660.513	-0.0196
660.843	-0.0068
661.173	-0.0002
661.503	-0.0024
661.833	-0.0024
662.162	-0.006
662.492	-0.006
662.822	-0.0066
663.151	-0.0075
663.481	-0.0051
663.81	-0.0022
664.139	0.0048
664.469	0.0038
664.798	0.0052
665.127	0.0021
665.456	0.0028
665.785	0.0009
666.114	0.0005
666.443	-0.0008
666.772	0.0041
667.101	0.0035
667.43	0.005
667.759	-0.0021
668.088	-0.0045
668.416	-0.0094
668.745	-0.0039
669.074	-0.0042
669.402	0.0023
669.731	0.0008
670.059	0.0072
670.388	0.0003
670.716	-0.0022
671.044	-0.0048
671.372	-0.0013
671.701	0.0005
672.029	0.0035
672.357	0.0068
672.685	0.0081
673.013	0.0046
673.341	-0.0016
673.669	-0.0036
673.996	0.0007
674.324	0.017
674.652	0.014
674.98	0.0101
675.307	0.0006
675.635	-0.0018
675.962	0.0016
676.29	-0.0055
676.617	-0.0044
676.945	-0.0067
677.272	-0.004
677.599	-0.002
677.926	-0.0016
678.253	0.0011
678.581	-0.0032
678.908	-0.0013
679.235	0.0053
679.561	0.0038
679.888	-0.0057
680.215	-0.0099
680.542	0.0084
680.869	0.0073
681.195	0.0022
681.522	-0.0065
681.849	-0.0016
682.175	0.0089
682.502	0.0108
682.828	0.0102
683.154	-0.0034
683.481	-0.0079
683.807	-0.0098
684.133	0.0087
684.459	0.0089
684.785	0.0113
685.111	-0.0048
685.437	-0.005
685.763	-0.0073
686.089	0.0011
686.415	0.008
686.741	0.0095
687.067	0.0133
687.392	0.0053
687.718	0.0075
688.043	0.0044
688.369	0.0065
688.694	-0.0029
689.02	-0.008
689.345	-0.0119
689.67	-0.0046
689.996	0.0016
690.321	0.0071
690.646	0.0049
690.971	0.0006
691.296	-0.0005
691.621	0.0037
691.946	0.008
692.271	0.0106
692.596	0.0046
692.921	-0.0021
693.245	-0.0118
693.57	-0.0055
693.895	0.0072
694.219	0.0103
694.544	0.0015
694.868	-0.0089
695.193	-0.0092
695.517	-0.0023
695.841	0.0003
696.166	-0.0027
696.49	-0.0067
696.814	-0.0095
697.138	-0.0055
697.462	0.0007
697.786	0.0045
698.11	0.0123
698.434	0.0017
698.758	-0.0076
699.081	-0.021
699.405	-0.0124
699.729	0.018
700.052	0.0203
700.376	0.0129
700.7	-0.0112
701.023	-0.0169
701.346	-0.0115
701.67	-0.0072
701.993	-0.0044
702.316	-0.0041
702.639	0.0025
702.963	-0.0001
703.286	-0.0042
703.609	0.0022
703.932	0.0071
704.255	0.0087
704.578	0.0008
704.9	0.0008
705.223	0.0032
705.546	0.0068
705.868	0.0029
706.191	-0.0012
706.514	-0.01
706.836	-0.0084
707.159	0.0012
707.481	0.0042
707.803	0.0027
708.126	-0.0028
708.448	-0.0003
708.77	0.0055
709.092	0.0039
709.414	0.0101
709.736	0.0105
710.058	0.0082
710.38	-0.0019
710.702	-0.0077
711.024	-0.0109
711.345	-0.0107
711.667	-0.0084
711.989	-0.0049
712.31	-0.0036
712.632	-0.0023
712.953	-0.0012
713.275	0.0019
713.596	-0
713.917	-0.0071
714.239	-0.0099
714.56	-0.0096
714.881	0.0016
715.202	0.0045
715.523	0.0133
715.844	0.0016
716.165	0.0047
716.486	-0.0036
716.807	0.0017
717.128	-0.0034
717.448	-0.0074
717.769	-0.0082
718.09	-0.0054
718.41	-0.0037
718.731	-0.0052
719.051	-0.014
719.372	-0.0097
719.692	-0.0024
720.012	0.0089
720.332	0.0047
720.653	0.0047
720.973	0.0081
721.293	0.0007
721.613	-0.0073
721.933	-0.0153
722.253	-0.0062
722.573	-0.0075
722.892	-0.0057
723.212	-0.0066
723.532	0.0002
723.851	0.0007
724.171	0.0009
724.491	0.0035
724.81	0.0034
725.129	0.0054
725.449	0.0007
725.768	-0.0003
726.087	0.0024
726.407	0.0002
726.726	-0.0078
727.045	-0.0183
727.364	-0.0109
727.683	-0.0034
728.002	0.0056
728.321	0.0003
728.64	-0.0019
728.958	-0.0043
729.277	-0.0022
729.596	-0.003
729.914	-0.003
730.233	-0.0002
730.551	0.0104
730.87	0.007
731.188	0.0057
731.507	-0.0048
731.825	-0.0035
732.143	-0.0087
732.461	-0.0021
732.779	-0.0014
733.097	0.0038
733.415	0.0112
733.733	0.0218
734.051	0.011
734.369	0.0019
734.687	-0.0144
735.005	-0.0101
735.322	-0.0106
735.64	0.0028
735.957	0.0059
736.275	0.0037
736.592	0.0012
736.91	-0.0002
737.227	0.0018
737.544	-0.0109
737.862	-0.0097
738.179	-0.0062
738.496	0.0068
738.813	0.001
739.13	-0.0097
739.447	-0.0124
739.764	-0.0006
740.081	0.0025
740.398	-0.0022
740.714	-0.0076
741.031	-0.0042
741.348	-0.002
741.664	0.0056
741.981	0.0131
742.297	0.0035
742.614	-0.0107
742.93	-0.023
743.246	-0.0148
743.563	-0.0055
743.879	-0.0029
744.195	-0.0026
744.511	-0.0052
744.827	-0.0009
745.143	0.0066
745.459	0.0075
745.775	-0.0006
746.091	-0.0101
746.406	-0.0106
746.722	-0.0068
747.038	-0.004
747.353	-0.0053
747.669	-0.0011
747.984	-0.0026
748.3	0.0056
748.615	0.0016
748.93	0.0058
749.246	-0.0028
749.561	-0.0011
749.876	-0.0011
750.191	-0.0009
750.506	-0.0013
750.821	-0.0078
751.136	-0.0035
751.451	-0.0004
751.766	0.0051
752.08	0.0052
752.395	0.0076
752.71	0.0074
753.024	0.0083
753.339	0.0068
753.653	0.0053
753.968	0.0047
754.282	0.006
754.596	0.005
754.911	-0.0023
755.225	-0.0011
755.539	-0.002
755.853	-0.001
756.167	-0.005
756.481	-0.0053
756.795	-0.0053
757.109	-0.0048
757.423	-0.0006
757.736	0.0028
758.05	0.0006
758.364	0.0025
758.677	-0.0002
758.991	-0.0012
759.304	-0
759.618	0.0055
759.931	0.0045
760.244	0.0078
760.558	0.0018
760.871	-0.0023
761.184	-0.0147
761.497	-0.0169
761.81	-0.0083
762.123	0.0036
762.436	0.0074
762.749	-0.0008
763.062	-0.0048
763.374	0.0015
763.687	0.001
764	-0.0017
764.312	-0.0156
764.625	-0.0106
764.937	-0.0108
765.25	-0.0038
765.562	0.0005
765.874	-0.0019
766.186	0.0038
766.499	-0.0013
766.811	0.0039
767.123	0.0139
767.435	0.0146
767.747	0.0121
768.059	-0.0049
768.37	-0.0074
768.682	-0.0095
768.994	-0.0077
769.306	-0.0048
769.617	0.0011
769.929	0.0028
770.24	0.0016
770.552	0.004
770.863	0.0089
771.174	0.0104
771.486	0.003
771.797	-0.005
772.108	-0.0128
772.419	-0.0162
772.73	-0.0092
773.041	0.0012
773.352	0.0057
773.663	-0.0012
773.974	-0.0035
774.285	-0.0087
774.595	-0.0079
774.906	-0.0106
775.217	-0.003
775.527	0.0012
775.838	0.0005
776.148	-0.0045
776.458	-0.0076
776.769	-0.0058
777.079	-0.0032
777.389	0.0023
777.699	0.0073
778.009	0.0068
778.319	0.0058
778.629	-0.0028
778.939	-0.0049
779.249	-0.0059
779.559	-0.0004
779.869	-0.0029
780.178	-0.0019
780.488	-0.0076
780.798	-0.0087
781.107	-0.0062
781.417	0.0011
781.726	0.0036
782.035	0.0033
782.345	0.0029
782.654	0.0014
782.963	-0.0015
783.272	-0.0053
783.581	0.0037
783.89	0.0109
784.199	0.0084
784.508	0.0001
784.817	-0.0175
785.126	-0.0159
785.434	-0.0102
785.743	-0.002
786.052	0.0009
786.36	-0.0035
786.669	-0.0044
786.977	-0.0065
787.285	-0.0059
787.594	-0.0017
787.902	0.0024
788.21	-0.0005
788.518	-0.0005
788.826	-0.0057
789.135	-0.0017
789.442	-0.0089
789.75	-0.0098
790.058	-0.0103
790.366	-0.0013
790.674	0.0009
790.981	0.0053
791.289	0.0061
791.597	-0.0013
791.904	-0.0063
792.212	-0.0084
792.519	-0.0055
792.826	0.0025
793.134	-0.0024
793.441	0.0018
793.748	-0.0011
794.055	0.0056
794.362	0.0081
794.669	0.0017
794.976	-0.0001
795.283	-0.0084
795.59	-0.0061
795.897	-0.0083
796.203	-0.0052
796.51	0.0111
796.817	0.0193
797.123	0.0104
797.43	-0.0034
797.736	-0.0109
798.042	-0.01
798.349	-0.0117
798.655	-0.013
798.961	-0.0039
799.267	0.003
799.573	0.0007
799.879	-0.0033
800.185	-0.0013
800.491	-0.0005
800.797	-0.0004
801.103	-0.009
801.408	-0.0112
801.714	-0.0073
802.02	-0.0067
802.325	-0.0021
802.631	-0.0058
802.936	0.0021
803.242	-0.0003
803.547	-0.0004
803.852	-0.0021
804.157	-0.003
804.462	-0.0022
804.768	-0.005
805.073	-0.0018
805.378	0.0023
805.682	-0.0009
805.987	-0.0009
806.292	-0.0056
806.597	-0.0006
806.902	0.0006
807.206	-0.0024
807.511	-0.0072
807.815	-0.0121
808.12	0.0001
808.424	0.008
808.728	0.0149
809.033	0.0122
809.337	-0.0007
809.641	-0.0143
809.945	-0.0162
810.249	-0.0056
810.553	-0.0039
810.857	-0.0085
811.161	-0.0116
811.465	-0.0036
811.768	-0.0093
812.072	-0.0087
812.376	-0.0071
812.679	0.0042
812.983	0.0035
813.286	0.0019
813.59	-0.0058
813.893	-0.0094
814.196	-0.0158
814.499	-0.0086
814.803	-0.0018
815.106	0.0029
815.409	-0.0018
815.712	-0.0098
816.015	-0.0006
816.318	0.0091
816.62	0.0083
816.923	-0.0037
817.226	-0.0118
817.528	-0.0054
817.831	0.0054
818.133	0.0048
818.436	-0.0013
818.738	-0.0119
819.041	-0.0093
819.343	-0.0067
819.645	0.0026
819.947	0.0071
820.249	0.0096
820.551	0.0005
820.853	-0.0118
821.155	-0.0108
821.457	-0.0097
821.759	-0.0002
822.061	0.0027
822.362	0.0075
822.664	0.005
822.966	0.0039
823.267	0.0025
823.569	0.0034
823.87	-0.0075
824.171	-0.0139
824.473	-0.0184
824.774	-0.0135
825.075	-0.0103
825.376	-0.0037
825.677	0.0027
825.978	0.0093
826.279	0.0026
826.58	0.0006
826.881	-0.0012
827.181	-0.0101
827.482	-0.0197
827.783	-0.0201
828.083	-0.0038
828.384	0.0058
828.684	0.0015
828.985	0.0027
829.285	0.0044
829.585	0.006
829.885	0.0049
830.185	0.0042
830.486	0.0003
830.786	-0.0077
831.086	-0.0152
831.385	-0.01
831.685	-0.0033
831.985	-0.0099
832.285	-0.0162
832.585	-0.0151
832.884	-0.0155
833.184	-0.0188
833.483	-0.0266
833.783	-0.0167
834.082	-0.0075
834.381	-0.0081
834.681	-0.0087
834.98	-0.018
835.279	-0.0165
835.578	-0.0084
835.877	-0.0053
836.176	-0.0055
836.475	-0.0153
836.774	-0.016
837.072	-0.0161
837.371	-0.0015
837.67	0.0082
837.968	0.0081
838.267	-0.0009
838.565	-0.0222
838.864	-0.0147
839.162	-0.0285
839.46	-0.0132
839.759	-0.0226
840.057	-0.0171
840.355	-0.0121
840.653	-0.0177
840.951	-0.0141
841.249	-0.0303
841.547	-0.0322
841.845	-0.0321
842.142	-0.0183
842.44	-0.0088
842.738	-0.0057
843.035	-0.0069
843.333	-0.007
843.63	-0.0057
843.928	0.008
844.225	0.0108
844.522	0.0076
844.82	-0.0019
845.117	0.003
845.414	0.01
845.711	0.0088
846.008	-0.0082
846.305	-0.015
846.602	-0.0095
846.898	-0.0122
847.195	-0.0191
847.492	-0.0266
847.788	0.0037
848.085	0.0081
848.382	0.0161
848.678	0.0023
848.974	-0.0005
849.271	-0.0162
849.567	-0.035
849.863	-0.025
850.159	-0.0176
850.455	0.0042
850.751	0.0012
851.047	0.002
851.343	-0.002
851.639	-0.0076
851.935	0.0037
852.23	-0.0039
852.526	-0.0091
852.822	-0.0218
853.117	-0.0073
853.413	0.0049
853.708	0.021
854.003	0.0056
854.299	-0.016
854.594	-0.0198
854.889	-0.0214
855.184	-0.0006
855.479	-0.0011
855.774	0.0076
856.069	0.0019
856.364	0.0111
856.659	0.0198
856.954	0.0213
857.248	-0.0017
857.543	-0.0067
857.837	-0.0176
858.132	-0.012
858.426	-0.011
858.721	-0.009
859.015	-0.0081
859.309	-0.0071
859.604	-0.0078
859.898	-0.0109
860.192	-0.0177
860.486	-0.0158
860.78	-0.0393
861.074	-0.0461
861.367	-0.0544
861.661	-0.0156
861.955	-0.0045
862.248	0.0072
862.542	-0.0383
862.836	-0.0553
863.129	-0.0407
863.422	-0.0046
863.716	0.0113
864.009	-0.0029
864.302	-0.0126
864.595	-0.014
864.889	0.0011
865.182	-0.0045
865.475	-0.0003
865.767	-0.0145
866.06	0.0012
866.353	0.0015
866.646	0.014
866.938	0.012
867.231	-0.0045
867.524	0.0071
867.816	0.0033
868.109	0.0169
868.401	-0.0086
868.693	-0.0075
868.985	-0.0016
869.278	0.0201
869.57	0.0236
869.862	-0.0049
870.154	-0.0286
870.446	-0.0156
870.738	-0.0088
871.029	-0.0004
871.321	0.0041
871.613	0.0209
871.904	-0.0137
872.196	-0.0334
872.487	-0.0705
872.779	-0.0313
873.07	-0.0174
873.362	0.0199
873.653	-0.0069
873.944	-0.0174
874.235	-0.0281
874.526	0.0054
874.817	0.021
875.108	0.0031
875.399	0.0067
875.69	-0.0145
875.981	0.0014
876.271	-0.0173
876.562	-0.0152
876.853	-0.0143
877.143	-0.0316
877.434	-0.0259
877.724	-0.0281
878.014	0.0065
878.305	0.0255
878.595	0.0005
878.885	-0.0443
879.175	-0.0466
879.465	-0.0098
879.755	0.0208
880.045	0.0022
880.335	-0.0181
880.624	-0.0353
880.914	-0.0353
