Data from 45SS03BU-alt2_080317_1a_Absorbance_15-28-53-595.txt Node
Date: Sun Aug 06 15:28:53 MDT 2017
User: Tank Lab
Spectrometer: FLMS01220
Trigger mode: 0
Integration Time (sec): 1.000000E-1
Scans to average: 10
Electric dark correction enabled: true
Nonlinearity correction enabled: false
Boxcar width: 1
XAxis mode: Wavelengths
Number of Pixels in Spectrum: 2048
>>>>>Begin Spectral Data<<<<<
179.47	-0.073
179.856	-0.073
180.241	-0.0922
180.626	0.1765
181.011	0.6423
181.396	0.5129
181.781	-0.8223
182.166	-0.2111
182.551	-0.0101
182.936	0.7897
183.321	-0
183.706	-0
184.091	-0
184.476	-0
184.86	-0
185.245	-0
185.63	-0.2544
186.015	0.2702
186.399	0.084
186.784	-0.0613
187.169	0.4481
187.553	0.2463
187.938	-0
188.322	-0.0955
188.707	-0.0587
189.091	-0.04
189.475	-0.0026
189.86	0.0464
190.244	0.092
190.629	0.111
191.013	0.1538
191.397	0.209
191.781	0.2659
192.165	0.3095
192.55	0.3474
192.934	0.372
193.318	0.4009
193.702	0.426
194.086	0.4511
194.47	0.4529
194.854	0.4698
195.238	0.4539
195.622	0.4509
196.006	0.4372
196.389	0.4222
196.773	0.4061
197.157	0.3819
197.541	0.3689
197.924	0.3465
198.308	0.3314
198.692	0.3074
199.075	0.2916
199.459	0.2657
199.843	0.2553
200.226	0.2367
200.61	0.224
200.993	0.2058
201.376	0.1982
201.76	0.1907
202.143	0.1794
202.527	0.1704
202.91	0.1617
203.293	0.1599
203.676	0.1562
204.059	0.1571
204.443	0.1501
204.826	0.1424
205.209	0.1332
205.592	0.1313
205.975	0.1304
206.358	0.127
206.741	0.1219
207.124	0.1166
207.507	0.1132
207.89	0.1112
208.273	0.1105
208.655	0.1122
209.038	0.1133
209.421	0.1139
209.804	0.1119
210.186	0.1116
210.569	0.108
210.951	0.1066
211.334	0.1034
211.717	0.1024
212.099	0.0993
212.482	0.0963
212.864	0.096
213.246	0.0978
213.629	0.0973
214.011	0.0968
214.393	0.0956
214.776	0.0955
215.158	0.0935
215.54	0.0921
215.922	0.0919
216.305	0.0902
216.687	0.0879
217.069	0.0836
217.451	0.0815
217.833	0.0808
218.215	0.0823
218.597	0.0804
218.979	0.0797
219.361	0.0762
219.742	0.0778
220.124	0.0752
220.506	0.0754
220.888	0.0736
221.27	0.0703
221.651	0.0691
222.033	0.0668
222.415	0.0655
222.796	0.0626
223.178	0.0622
223.559	0.0613
223.941	0.0597
224.322	0.059
224.704	0.0584
225.085	0.0583
225.466	0.0552
225.848	0.0545
226.229	0.0533
226.61	0.0516
226.992	0.0497
227.373	0.0484
227.754	0.0496
228.135	0.0497
228.516	0.0484
228.897	0.0473
229.278	0.0451
229.659	0.046
230.04	0.0445
230.421	0.0448
230.802	0.0426
231.183	0.0426
231.564	0.0425
231.944	0.0421
232.325	0.0403
232.706	0.0371
233.087	0.0355
233.467	0.0333
233.848	0.0348
234.229	0.0335
234.609	0.0338
234.99	0.0333
235.37	0.0341
235.751	0.035
236.131	0.0327
236.511	0.0309
236.892	0.0298
237.272	0.0296
237.652	0.0298
238.033	0.0287
238.413	0.0288
238.793	0.029
239.173	0.0297
239.553	0.0298
239.933	0.0299
240.313	0.0285
240.694	0.0274
241.074	0.027
241.453	0.0273
241.833	0.027
242.213	0.0258
242.593	0.0254
242.973	0.0256
243.353	0.0255
243.732	0.0255
244.112	0.0238
244.492	0.0238
244.872	0.0228
245.251	0.0244
245.631	0.0238
246.01	0.0242
246.39	0.0229
246.769	0.0242
247.149	0.0239
247.528	0.0242
247.908	0.0236
248.287	0.0228
248.666	0.0231
249.045	0.0232
249.425	0.0244
249.804	0.0229
250.183	0.0217
250.562	0.0212
250.941	0.0227
251.32	0.0221
251.699	0.0224
252.078	0.0216
252.457	0.0212
252.836	0.02
253.215	0.0204
253.594	0.0209
253.973	0.0211
254.352	0.0203
254.731	0.0204
255.109	0.0206
255.488	0.0205
255.867	0.0215
256.245	0.0203
256.624	0.021
257.002	0.0207
257.381	0.021
257.759	0.0209
258.138	0.0207
258.516	0.0206
258.895	0.0208
259.273	0.0204
259.651	0.021
260.03	0.0208
260.408	0.0209
260.786	0.0213
261.164	0.0214
261.542	0.021
261.921	0.0208
262.299	0.0197
262.677	0.0198
263.055	0.0178
263.433	0.0179
263.811	0.0183
264.188	0.0209
264.566	0.0208
264.944	0.02
265.322	0.018
265.7	0.018
266.077	0.0183
266.455	0.02
266.833	0.0209
267.21	0.0205
267.588	0.0184
267.966	0.0177
268.343	0.0171
268.721	0.0176
269.098	0.016
269.475	0.0168
269.853	0.018
270.23	0.0196
270.607	0.0186
270.985	0.0185
271.362	0.0176
271.739	0.018
272.116	0.0184
272.494	0.0197
272.871	0.0198
273.248	0.0181
273.625	0.0174
274.002	0.0176
274.379	0.0189
274.756	0.018
275.132	0.0181
275.509	0.0186
275.886	0.0205
276.263	0.0206
276.64	0.0198
277.016	0.0188
277.393	0.019
277.77	0.0173
278.146	0.016
278.523	0.0135
278.899	0.0138
279.276	0.015
279.652	0.0175
280.029	0.0176
280.405	0.018
280.782	0.0159
281.158	0.0171
281.534	0.0166
281.91	0.0171
282.287	0.016
282.663	0.0159
283.039	0.0169
283.415	0.0182
283.791	0.0195
284.167	0.02
284.543	0.0182
284.919	0.017
285.295	0.0142
285.671	0.0155
286.047	0.0149
286.423	0.0163
286.799	0.0165
287.174	0.0168
287.55	0.0174
287.926	0.0172
288.301	0.0173
288.677	0.0172
289.053	0.0162
289.428	0.0153
289.804	0.0162
290.179	0.0168
290.555	0.0184
290.93	0.0173
291.305	0.0167
291.681	0.0148
292.056	0.0158
292.431	0.0176
292.806	0.0193
293.182	0.0182
293.557	0.017
293.932	0.0159
294.307	0.0166
294.682	0.0167
295.057	0.0171
295.432	0.0154
295.807	0.0158
296.182	0.0164
296.557	0.0171
296.932	0.0156
297.306	0.015
297.681	0.0155
298.056	0.0154
298.43	0.0162
298.805	0.0157
299.18	0.0183
299.554	0.0181
299.929	0.0182
300.303	0.0166
300.678	0.0154
301.052	0.0158
301.427	0.0164
301.801	0.0171
302.175	0.016
302.55	0.0153
302.924	0.0146
303.298	0.0149
303.672	0.0148
304.046	0.0157
304.421	0.0155
304.795	0.0148
305.169	0.0143
305.543	0.0147
305.917	0.0152
306.291	0.0152
306.664	0.0152
307.038	0.0141
307.412	0.0143
307.786	0.0158
308.16	0.0162
308.533	0.0157
308.907	0.0132
309.281	0.0139
309.654	0.0135
310.028	0.0149
310.401	0.0145
310.775	0.015
311.148	0.0125
311.522	0.0123
311.895	0.0108
312.268	0.0122
312.642	0.0107
313.015	0.0134
313.388	0.0128
313.761	0.0131
314.135	0.0125
314.508	0.0127
314.881	0.0144
315.254	0.0126
315.627	0.0121
316	0.0116
316.373	0.0114
316.746	0.0125
317.118	0.0121
317.491	0.0127
317.864	0.0124
318.237	0.0125
318.61	0.0123
318.982	0.0117
319.355	0.0118
319.727	0.0119
320.1	0.0121
320.473	0.0116
320.845	0.0122
321.218	0.0122
321.59	0.0132
321.962	0.0125
322.335	0.013
322.707	0.012
323.079	0.0122
323.452	0.0114
323.824	0.0109
324.196	0.0104
324.568	0.0111
324.94	0.0116
325.312	0.0134
325.684	0.0126
326.056	0.0108
326.428	0.0098
326.8	0.0086
327.172	0.0109
327.544	0.0106
327.915	0.0122
328.287	0.0119
328.659	0.0103
329.031	0.0095
329.402	0.0084
329.774	0.0084
330.145	0.0086
330.517	0.009
330.888	0.0083
331.26	0.0081
331.631	0.0075
332.003	0.0088
332.374	0.0091
332.745	0.0101
333.117	0.0083
333.488	0.008
333.859	0.0063
334.23	0.007
334.601	0.0072
334.972	0.0084
335.343	0.0093
335.714	0.0083
336.085	0.008
336.456	0.0074
336.827	0.0084
337.198	0.0087
337.569	0.0097
337.94	0.0086
338.31	0.0072
338.681	0.0064
339.052	0.0064
339.422	0.0072
339.793	0.0061
340.164	0.0052
340.534	0.0036
340.905	0.0039
341.275	0.0041
341.645	0.0051
342.016	0.0051
342.386	0.0045
342.756	0.0046
343.127	0.0043
343.497	0.0057
343.867	0.0052
344.237	0.0048
344.607	0.0039
344.977	0.0044
345.347	0.0054
345.717	0.0058
346.087	0.0059
346.457	0.0069
346.827	0.0055
347.197	0.004
347.567	0.0044
347.936	0.0053
348.306	0.0054
348.676	0.0033
349.046	0.0033
349.415	0.0048
349.785	0.0053
350.154	0.0054
350.524	0.0062
350.893	0.0062
351.263	0.0068
351.632	0.0063
352.001	0.0045
352.371	0.0036
352.74	0.0033
353.109	0.0055
353.478	0.0065
353.847	0.0069
354.217	0.0071
354.586	0.0055
354.955	0.0037
355.324	0.0021
355.693	0.003
356.062	0.0053
356.43	0.0052
356.799	0.0047
357.168	0.0033
357.537	0.004
357.906	0.004
358.274	0.0051
358.643	0.0054
359.011	0.0057
359.38	0.0048
359.749	0.0042
360.117	0.0025
360.486	0.0014
360.854	0.0017
361.222	0.0032
361.591	0.0036
361.959	0.0026
362.327	0.0014
362.695	0.0016
363.064	0.0029
363.432	0.0034
363.8	0.0043
364.168	0.0025
364.536	0.0034
364.904	0.0038
365.272	0.0035
365.64	0.0028
366.008	0.0021
366.376	0.002
366.743	0.0028
367.111	0.0022
367.479	0.0054
367.847	0.0051
368.214	0.0051
368.582	0.0023
368.949	0.0023
369.317	0.0029
369.684	0.0024
370.052	0.0016
370.419	0.0006
370.787	0.0027
371.154	0.0021
371.521	0.0025
371.889	0.0033
372.256	0.0048
372.623	0.0046
372.99	0.0025
373.357	0.0022
373.724	0.0039
374.091	0.0038
374.458	0.0022
374.825	0.0017
375.192	0.0025
375.559	0.0041
375.926	0.003
376.293	0.0016
376.659	0.0012
377.026	0.0015
377.393	0.0044
377.759	0.0043
378.126	0.0029
378.492	0.0015
378.859	0.0004
379.225	0.0011
379.592	0.0003
379.958	0.0014
380.325	0.0014
380.691	0.0007
381.057	0.0001
381.423	0.0016
381.79	0.0014
382.156	0.0032
382.522	0.0021
382.888	0.003
383.254	0.0027
383.62	0.0019
383.986	0.001
384.352	-0.0007
384.718	-0.0009
385.084	0.0008
385.449	0.0015
385.815	-0
386.181	0.001
386.547	0.0008
386.912	0.0013
387.278	-0.0008
387.643	-0.0015
388.009	-0.0011
388.374	-0.0005
388.74	0.0004
389.105	0.0025
389.471	0.0031
389.836	0.003
390.201	0.004
390.566	0.0042
390.932	0.006
391.297	0.0058
391.662	0.0064
392.027	0.0044
392.392	0.002
392.757	-0.0001
393.122	-0.0004
393.487	0.0015
393.852	0.0008
394.217	0.0021
394.582	0.0003
394.946	0.0021
395.311	0.0022
395.676	0.0032
396.04	0.0006
396.405	-0.0008
396.77	-0.0021
397.134	-0.0001
397.499	-0.0004
397.863	0.0001
398.227	0.0007
398.592	0.0021
398.956	0.0017
399.32	0.0026
399.685	0.0017
400.049	0.0023
400.413	0.0007
400.777	0.0009
401.141	0.0003
401.505	0
401.869	-0.0008
402.233	-0
402.597	0.0009
402.961	0.0021
403.325	0.0009
403.689	-0.0008
404.053	0.0002
404.416	0.0008
404.78	0.0013
405.144	-0.0006
405.507	-0.0021
405.871	-0.0018
406.234	-0.0014
406.598	0.0025
406.961	0.0044
407.325	0.0042
407.688	0.0024
408.051	0.0034
408.415	0.0039
408.778	0.0034
409.141	0.0004
409.504	-0.001
409.867	-0.0015
410.23	0.0001
410.593	0.0013
410.956	0.0027
411.319	0.0016
411.682	0.0016
412.045	0.0003
412.408	0.0019
412.771	0.0029
413.134	0.0033
413.496	0.0001
413.859	-0.0022
414.222	-0.0003
414.584	0.0014
414.947	0.0023
415.309	-0.0002
415.672	-0.0006
416.034	0.0006
416.396	-0.0005
416.759	0.0022
417.121	0.0011
417.483	0.0034
417.846	0.0014
418.208	0.0036
418.57	0.0038
418.932	0.0019
419.294	-0.0017
419.656	-0.0021
420.018	-0.0005
420.38	0.0002
420.742	-0.001
421.104	-0.0021
421.466	0.0015
421.827	0.0033
422.189	0.0037
422.551	0.002
422.912	0.0001
423.274	0.0016
423.636	-0.0006
423.997	-0.0027
424.359	-0.0028
424.72	-0.0022
425.081	-0.0012
425.443	-0.0016
425.804	-0.0003
426.165	0.0008
426.527	0.0004
426.888	0.0006
427.249	0.002
427.61	0.0023
427.971	0.0002
428.332	-0.0017
428.693	-0.0005
429.054	0.001
429.415	0.0024
429.776	0.0003
430.137	0.0006
430.498	0.0001
430.858	0.0004
431.219	-0.0006
431.58	0.0016
431.94	0.0037
432.301	0.0042
432.661	0.0023
433.022	-0
433.382	-0.001
433.743	-0.0021
434.103	-0.0016
434.463	-0.0002
434.824	0.0002
435.184	0.0001
435.544	-0.0011
435.904	-0.0006
436.264	-0.0017
436.624	-0.0024
436.985	-0.0027
437.345	-0.0001
437.704	0.0016
438.064	0.0019
438.424	0.0007
438.784	0.0011
439.144	0.0021
439.504	0.0014
439.863	0.0013
440.223	0.0003
440.583	0.0004
440.942	-0.0018
441.302	-0.0009
441.661	0.0003
442.021	0.0008
442.38	0.0019
442.739	-0.001
443.099	0.0026
443.458	0.0007
443.817	0.003
444.176	0.0014
444.536	-0.0004
444.895	-0.0021
445.254	-0.0028
445.613	-0.0011
445.972	0.0005
446.331	0.0008
446.69	0.001
447.049	0.0022
447.407	0.0026
447.766	0.0051
448.125	0.0067
448.484	0.0072
448.842	0.0041
449.201	0.0018
449.559	0.0013
449.918	0.0027
450.276	0.0025
450.635	0.0006
450.993	-0.0028
451.352	-0.0033
451.71	-0.0019
452.068	0.0009
452.426	0.0034
452.785	0.0016
453.143	0.0007
453.501	-0.0006
453.859	-0.0003
454.217	0.0002
454.575	-0.0032
454.933	-0.0036
455.291	-0.0029
455.649	0.0001
456.006	0.0056
456.364	0.0034
456.722	0.0041
457.079	-0.0003
457.437	0.0025
457.795	0.0019
458.152	0.0022
458.51	-0
458.867	0.0017
459.225	0.0014
459.582	0.0009
459.939	0.0009
460.297	0.0015
460.654	0.0014
461.011	-0.0012
461.368	-0.0014
461.725	-0.001
462.082	0.0006
462.44	0.0024
462.797	0.0036
463.153	0.0009
463.51	0.0006
463.867	-0.0005
464.224	0.0006
464.581	-0.0016
464.938	-0.0004
465.294	-0.0008
465.651	0.0019
466.008	0.0011
466.364	0.0041
466.721	0.0008
467.077	0.002
467.434	0.0003
467.79	0.0007
468.146	-0.0015
468.503	-0.0024
468.859	-0.0011
469.215	0
469.571	0.0008
469.927	0.0036
470.284	0.0022
470.64	0.0023
470.996	-0.0005
471.352	-0.0009
471.707	-0.0012
472.063	0.0002
472.419	0.0006
472.775	0.0018
473.131	0.0007
473.486	0.0046
473.842	0.0044
474.198	0.0034
474.553	0.0014
474.909	-0.0004
475.264	-0.0017
475.62	-0.0006
475.975	0.0001
476.331	0.0018
476.686	-0.0011
477.041	-0.0036
477.396	-0.0028
477.752	-0.0014
478.107	-0.0002
478.462	-0.0011
478.817	-0
479.172	0.0023
479.527	0.0026
479.882	0.0015
480.237	0.0023
480.591	0.0008
480.946	0.0003
481.301	-0.001
481.656	-0.0008
482.01	-0.0004
482.365	-0.0005
482.72	0.0014
483.074	0.0011
483.429	-0.0006
483.783	-0.0019
484.137	-0.0011
484.492	0.0016
484.846	0.0013
485.2	0.0013
485.555	0.001
485.909	0.0036
486.263	0.0024
486.617	0.003
486.971	0.0009
487.325	0.001
487.679	-0.0006
488.033	0.0001
488.387	-0.0012
488.741	-0.002
489.094	-0.002
489.448	-0.0006
489.802	0.0014
490.156	-0.001
490.509	-0.0032
490.863	-0.0045
491.216	-0.003
491.57	-0.0016
491.923	0.0007
492.277	-0.0004
492.63	0.0002
492.983	-0.002
493.337	-0.0015
493.69	-0.0002
494.043	0.0001
494.396	0.0025
494.749	0.0004
495.102	0.0018
495.455	-0.0006
495.808	0.0001
496.161	-0.0023
496.514	0.0006
496.867	0.0021
497.22	0.0033
497.572	-0.0006
497.925	-0.001
498.278	-0.0001
498.63	0.0014
498.983	0.001
499.335	0.0005
499.688	-0.0001
500.04	0.0003
500.393	-0.001
500.745	-0.0012
501.097	-0.0022
501.449	-0.0011
501.802	0.0003
502.154	0.0002
502.506	0.0009
502.858	-0.0019
503.21	-0.0027
503.562	-0.0016
503.914	0.0013
504.266	0.0021
504.618	-0.0007
504.969	-0.0002
505.321	-0.0006
505.673	-0.0006
506.025	0.0011
506.376	0.0023
506.728	0.0031
507.079	-0.0004
507.431	-0.0007
507.782	-0.001
508.134	-0.0004
508.485	-0.0009
508.836	-0.0011
509.188	-0.0009
509.539	-0.0009
509.89	-0.0034
510.241	-0.002
510.592	-0.001
510.943	0.0017
511.294	0.0026
511.645	0.0035
511.996	0.0044
512.347	0.0008
512.698	0.0002
513.049	-0.0013
513.399	-0.0002
513.75	-0.0023
514.101	-0.0017
514.451	-0.0003
514.802	0.0031
515.152	0.0037
515.503	0.0005
515.853	-0.0012
516.203	-0.0014
516.554	-0.0012
516.904	-0.0015
517.254	-0.0022
517.604	-0.0012
517.955	-0.001
518.305	-0.0011
518.655	0.0009
519.005	-0.0009
519.355	-0.0001
519.705	-0.0044
520.055	-0.0034
520.404	-0.0052
520.754	-0.0009
521.104	-0.0023
521.454	-0.0001
521.803	-0.0019
522.153	-0.0012
522.502	-0.0023
522.852	-0.0031
523.201	-0.0014
523.551	-0.002
523.9	0.0001
524.249	-0.0003
524.599	-0.0024
524.948	-0.006
525.297	-0.007
525.646	-0.0045
525.995	-0.0014
526.344	-0.0024
526.694	-0.0004
527.042	-0.001
527.391	-0.0021
527.74	-0.0027
528.089	-0.0049
528.438	-0.0005
528.787	-0.0023
529.135	-0.0009
529.484	-0.0027
529.833	-0.0006
530.181	-0.0021
530.53	-0.0013
530.878	-0.0012
531.227	0.0019
531.575	0.0009
531.923	-0.0004
532.271	-0.0003
532.62	-0.0009
532.968	-0.0026
533.316	-0.0026
533.664	-0.0026
534.012	-0.0027
534.36	-0.002
534.708	-0.0025
535.056	-0.0007
535.404	0.0007
535.752	0.0036
536.1	0.0044
536.447	0.0014
536.795	0.0007
537.143	0.0002
537.49	0.0008
537.838	-0.001
538.185	-0.0025
538.533	-0.0032
538.88	-0.0028
539.228	-0.0016
539.575	-0.0007
539.922	-0.0025
540.269	0
540.617	-0.0007
540.964	0.0017
541.311	-0.0009
541.658	0.0011
542.005	-0.0001
542.352	-0.001
542.699	-0.003
543.045	-0.0028
543.392	-0.0018
543.739	0.0004
544.086	-0.0009
544.432	-0.0007
544.779	-0.0029
545.126	-0.001
545.472	0.0014
545.819	0.0035
546.165	0.0033
546.512	-0.0004
546.858	-0.0028
547.204	-0.0038
547.55	-0.0055
547.897	-0.0027
548.243	-0.0024
548.589	0.0017
548.935	0.001
549.281	0.0007
549.627	-0.0025
549.973	-0.0041
550.319	-0.0026
550.665	-0.0007
551.01	-0.0005
551.356	-0.003
551.702	-0.004
552.048	-0.0061
552.393	-0.0039
552.739	-0.0044
553.084	-0.0018
553.43	-0.0019
553.775	-0.0021
554.12	-0.0027
554.466	-0.0028
554.811	-0.0043
555.156	-0.0047
555.502	-0.005
555.847	-0.0015
556.192	-0.0001
556.537	-0.0004
556.882	-0.0032
557.227	-0.0041
557.572	-0.0054
557.917	-0.0034
558.261	-0.006
558.606	-0.0027
558.951	-0.0025
559.295	0.002
559.64	-0.0011
559.985	-0.0029
560.329	-0.0042
560.674	-0.0014
561.018	-0.0023
561.363	-0.005
561.707	-0.0066
562.051	-0.0033
562.395	-0.0018
562.74	-0.0013
563.084	-0.002
563.428	-0.003
563.772	-0.0021
564.116	-0.0027
564.46	0.0009
564.804	0.001
565.148	0.0007
565.492	0.0002
565.835	0.0026
566.179	0.005
566.523	-0.0005
566.866	-0.0061
567.21	-0.0092
567.554	-0.0075
567.897	-0.004
568.24	-0.0038
568.584	-0.0025
568.927	-0.0029
569.271	-0.0019
569.614	-0.0028
569.957	-0.0023
570.3	0.0002
570.643	0.0001
570.986	0.0003
571.329	-0.0031
571.672	-0.0002
572.015	-0.0008
572.358	-0.0006
572.701	-0.0031
573.044	-0.0054
573.387	-0.0036
573.729	-0.0025
574.072	-0.0015
574.414	-0.0044
574.757	-0.0027
575.099	-0.0035
575.442	-0.0019
575.784	-0.0038
576.127	-0.0017
576.469	-0.0009
576.811	-0.0009
577.153	0.0013
577.496	0.001
577.838	-0.0001
578.18	-0.0026
578.522	-0.0052
578.864	-0.0048
579.206	-0.004
579.548	-0.0021
579.889	-0.0038
580.231	-0.0026
580.573	0.0004
580.915	0.0017
581.256	-0.002
581.598	-0.0048
581.939	-0.0069
582.281	-0.0029
582.622	-0.0038
582.964	-0.0032
583.305	-0.0045
583.646	-0.0034
583.988	-0.001
584.329	-0.0019
584.67	-0.004
585.011	-0.006
585.352	-0.0063
585.693	-0.0042
586.034	-0.0032
586.375	-0.0044
586.716	-0.0047
587.057	-0.0028
587.398	-0.0002
587.738	0.0006
588.079	-0.0031
588.42	-0.0032
588.76	-0.0047
589.101	-0.001
589.441	-0.001
589.782	-0.0005
590.122	-0.001
590.463	-0.0016
590.803	-0.0018
591.143	-0.0039
591.483	-0.0051
591.823	-0.005
592.164	-0.0056
592.504	-0.0041
592.844	-0.003
593.184	0.0011
593.523	-0.0011
593.863	-0.0027
594.203	-0.007
594.543	-0.0048
594.883	-0.0048
595.222	-0.0021
595.562	-0.0006
595.901	-0.001
596.241	-0.0027
596.58	-0.0055
596.92	-0.0063
597.259	-0.0073
597.599	-0.0054
597.938	-0.0037
598.277	-0.0025
598.616	-0.004
598.955	-0.0043
599.295	-0.0058
599.634	-0.0058
599.973	-0.006
600.312	-0.005
600.65	-0.0057
600.989	-0.0054
601.328	-0.0046
601.667	-0.0024
602.005	-0.0045
602.344	-0.0063
602.683	-0.0058
603.021	-0.0043
603.36	-0.0015
603.698	-0.0023
604.037	-0.0009
604.375	-0.0017
604.713	-0.0031
605.052	-0.0015
605.39	-0.0039
605.728	-0.0034
606.066	-0.005
606.404	-0.0036
606.742	-0.0044
607.08	-0.0023
607.418	-0.0046
607.756	-0.003
608.094	-0.0045
608.431	-0.0028
608.769	-0.0027
609.107	-0.0045
609.444	-0.0037
609.782	-0.0048
610.12	-0.0012
610.457	-0.0032
610.794	-0.0017
611.132	-0.0051
611.469	-0.0061
611.806	-0.0094
612.144	-0.0112
612.481	-0.0052
612.818	-0.0045
613.155	-0.0023
613.492	-0.0039
613.829	-0.0004
614.166	-0.0002
614.503	-0.0001
614.84	-0.0016
615.176	-0.0029
615.513	-0.0025
615.85	-0.0023
616.187	-0.0005
616.523	-0.0006
616.86	-0.0037
617.196	-0.0047
617.533	-0.0038
617.869	-0.0022
618.205	-0.0021
618.542	-0.0048
618.878	-0.0051
619.214	-0.0035
619.55	-0.0027
619.886	-0.0013
620.222	-0.0034
620.558	-0.0023
620.894	-0.0043
621.23	-0.0036
621.566	-0.0057
621.902	-0.0068
622.238	-0.0066
622.573	-0.003
622.909	-0.0001
623.244	-0.0015
623.58	-0.004
623.916	-0.0053
624.251	-0.0079
624.586	-0.0082
624.922	-0.0074
625.257	-0.0061
625.592	-0.0048
625.927	-0.004
626.263	-0.0033
626.598	-0.0038
626.933	-0.0044
627.268	-0.0011
627.603	-0.0028
627.938	-0.0055
628.272	-0.0075
628.607	-0.0085
628.942	-0.0035
629.277	-0.0066
629.611	-0.0065
629.946	-0.0075
630.281	-0.0028
630.615	-0.0008
630.949	-0.0014
631.284	-0.0004
631.618	0.002
631.953	0.0011
632.287	-0.0049
632.621	-0.0087
632.955	-0.0077
633.289	-0.0036
633.623	-0.0029
633.957	-0.002
634.291	-0.0046
634.625	-0.0055
634.959	-0.0058
635.293	-0.0061
635.627	-0.0021
635.96	-0.0004
636.294	-0.0009
636.627	-0.0014
636.961	-0.0046
637.294	-0.0044
637.628	-0.0071
637.961	-0.0074
638.295	-0.0063
638.628	-0.0012
638.961	-0.0043
639.294	-0.0033
639.628	-0.01
639.961	-0.0096
640.294	-0.0144
640.627	-0.0105
640.96	-0.0083
641.293	-0.0067
641.625	-0.0078
641.958	-0.0031
642.291	-0.0053
642.624	-0.0019
642.956	-0.0047
643.289	0.0053
643.621	0.0006
643.954	-0.0073
644.286	-0.0108
644.619	-0.0056
644.951	-0.0038
645.283	-0.003
645.616	-0.0084
645.948	-0.0053
646.28	-0.0086
646.612	-0.0108
646.944	-0.0086
647.276	-0.0144
647.608	-0.0112
647.94	-0.0135
648.272	-0.0074
648.603	-0.0061
648.935	-0.0076
649.267	-0.003
649.598	-0.0066
649.93	-0.0022
650.261	-0.0032
650.593	-0.0039
650.924	-0.0062
651.256	-0.0061
651.587	-0.0044
651.918	-0.0043
652.25	-0.0083
652.581	-0.0079
652.912	-0.0095
653.243	-0.009
653.574	-0.0069
653.905	-0.0044
654.236	-0.0052
654.567	-0.0059
654.897	-0.0104
655.228	-0.0134
655.559	-0.0107
655.89	-0.0061
656.22	0.0021
656.551	-0.0025
656.881	-0.0023
657.212	-0.0072
657.542	-0.0078
657.872	-0.0047
658.203	-0.0083
658.533	0.005
658.863	0.002
659.193	-0.0038
659.523	-0.0065
659.853	-0.0118
660.183	-0.0018
660.513	-0.0033
660.843	-0.0052
661.173	-0.0018
661.503	0.0004
661.833	-0.002
662.162	-0.0072
662.492	-0.0116
662.822	-0.0091
663.151	-0.0054
663.481	-0.003
663.81	-0.0021
664.139	-0.0086
664.469	-0.0071
664.798	-0.0031
665.127	-0.0001
665.456	0.0005
665.785	-0.0042
666.114	-0.005
666.443	-0.0092
666.772	-0.0112
667.101	-0.0132
667.43	-0.0142
667.759	-0.0063
668.088	-0.0034
668.416	-0.0032
668.745	-0.0091
669.074	-0.0097
669.402	-0.0069
669.731	-0.01
670.059	-0.0128
670.388	-0.0089
670.716	-0.0036
671.044	-0.0015
671.372	-0.0074
671.701	-0.0056
672.029	-0.0048
672.357	-0.0026
672.685	-0.0023
673.013	-0.0014
673.341	0.0021
673.669	-0.0027
673.996	-0.0034
674.324	-0.0034
674.652	-0.0005
674.98	-0.0002
675.307	-0.0018
675.635	-0.0018
675.962	-0.0043
676.29	-0.0048
676.617	-0.007
676.945	-0.0012
677.272	-0.005
677.599	-0.0028
677.926	-0.0097
678.253	-0.0079
678.581	-0.008
678.908	-0.0047
679.235	-0.0029
679.561	-0.0029
679.888	-0.0034
680.215	-0.0042
680.542	-0.0111
680.869	-0.0072
681.195	-0.0089
681.522	-0.0023
681.849	-0.0081
682.175	-0.0079
682.502	-0.0089
682.828	-0.0078
683.154	-0.005
683.481	-0.0054
683.807	-0.0041
684.133	-0.008
684.459	-0.0128
684.785	-0.0117
685.111	-0.0092
685.437	-0.0069
685.763	-0.0079
686.089	-0.0077
686.415	-0.006
686.741	-0.0054
687.067	-0.0039
687.392	-0.0057
687.718	-0.0086
688.043	-0.0103
688.369	-0.0056
688.694	-0.0027
689.02	-0.0041
689.345	-0.009
689.67	-0.0115
689.996	-0.0116
690.321	-0.0088
690.646	-0.0066
690.971	-0.0031
691.296	-0.0008
691.621	-0.0011
691.946	-0.007
692.271	-0.0133
692.596	-0.0132
692.921	-0.0074
693.245	-0.0007
693.57	-0.0041
693.895	-0.0053
694.219	-0.0119
694.544	-0.0066
694.868	-0.0079
695.193	-0.0071
695.517	-0.009
695.841	-0.009
696.166	-0.0049
696.49	-0.0052
696.814	-0.0076
697.138	-0.0099
697.462	-0.0053
697.786	0.0005
698.11	0.0023
698.434	-0.0034
698.758	-0.0071
699.081	-0.0097
699.405	-0.0073
699.729	-0.0056
700.052	-0.0097
700.376	-0.0163
700.7	-0.0193
701.023	-0.0178
701.346	-0.0101
701.67	-0.0079
701.993	-0.008
702.316	-0.0104
702.639	-0.0097
702.963	-0.0101
703.286	-0.014
703.609	-0.0097
703.932	-0.0071
704.255	-0.0049
704.578	-0.0063
704.9	-0.0022
705.223	0.0024
705.546	-0.0008
705.868	-0.0039
706.191	-0.0074
706.514	-0.0116
706.836	-0.0107
707.159	-0.0082
707.481	-0.0033
707.803	-0.0047
708.126	-0.0058
708.448	-0.0032
708.77	-0.003
709.092	-0.003
709.414	-0.005
709.736	-0.0048
710.058	-0.0017
710.38	0.0002
710.702	-0.002
711.024	-0.0045
711.345	-0.0074
711.667	-0.0047
711.989	-0.0063
712.31	-0.0057
712.632	-0.0106
712.953	-0.0103
713.275	-0.0117
713.596	-0.0096
713.917	-0.0103
714.239	-0.0099
714.56	-0.0095
714.881	-0.0119
715.202	-0.0117
715.523	-0.0075
715.844	-0.0018
716.165	-0.0038
716.486	-0.0052
716.807	-0.0106
717.128	-0.0105
717.448	-0.0115
717.769	-0.0116
718.09	-0.0104
718.41	-0.0104
718.731	-0.0077
719.051	-0.008
719.372	-0.0106
719.692	-0.0129
720.012	-0.0081
720.332	-0.0079
720.653	-0.0037
720.973	-0.0059
721.293	-0.0066
721.613	-0.009
721.933	-0.011
722.253	-0.0068
722.573	-0.0086
722.892	-0.0102
723.212	-0.0115
723.532	-0.0067
723.851	-0.0081
724.171	-0.01
724.491	-0.0145
724.81	-0.0133
725.129	-0.0159
725.449	-0.0176
725.768	-0.0135
726.087	-0.0104
726.407	-0.0044
726.726	-0.0034
727.045	-0.0031
727.364	-0.0053
727.683	-0.0096
728.002	-0.0096
728.321	-0.0089
728.64	-0.0071
728.958	-0.0035
729.277	-0.0075
729.596	-0.0071
729.914	-0.012
730.233	-0.0058
730.551	-0.007
730.87	-0.0038
731.188	-0.0087
731.507	-0.0089
731.825	-0.01
732.143	-0.0066
732.461	-0.0048
732.779	-0.0055
733.097	-0.0042
733.415	-0.0044
733.733	-0.0024
734.051	-0.0019
734.369	-0.0023
734.687	-0.0037
735.005	-0.0078
735.322	-0.006
735.64	-0.0071
735.957	-0.0046
736.275	-0.0062
736.592	-0.0051
736.91	-0.0084
737.227	-0.0068
737.544	-0.0061
737.862	0.0005
738.179	0.0014
738.496	0.0022
738.813	-0.0041
739.13	-0.0067
739.447	-0.0141
739.764	-0.0124
740.081	-0.0127
740.398	-0.009
740.714	-0.0114
741.031	-0.0115
741.348	-0.0088
741.664	-0.0043
741.981	0.0014
742.297	0.0033
742.614	0.0035
742.93	-0.0003
743.246	-0.0058
743.563	-0.0129
743.879	-0.0159
744.195	-0.0102
744.511	-0.0072
744.827	-0.0042
745.143	-0.0106
745.459	-0.0081
745.775	-0.0111
746.091	-0.0117
746.406	-0.0157
746.722	-0.0113
747.038	-0.0082
747.353	-0.0066
747.669	-0.014
747.984	-0.0145
748.3	-0.0135
748.615	-0.0101
748.93	-0.0066
749.246	-0.0044
749.561	-0.0023
749.876	-0.0066
750.191	-0.0091
750.506	-0.012
750.821	-0.0116
751.136	-0.0082
751.451	-0.0082
751.766	-0.0045
752.08	-0.0049
752.395	0.0008
752.71	-0.0015
753.024	-0.0017
753.339	-0.0057
753.653	-0.0069
753.968	-0.0101
754.282	-0.0078
754.596	-0.0055
754.911	-0.0022
755.225	-0.0047
755.539	-0.009
755.853	-0.0148
756.167	-0.0159
756.481	-0.0107
756.795	-0.0111
757.109	-0.007
757.423	-0.0092
757.736	-0.0055
758.05	-0.0118
758.364	-0.0091
758.677	-0.0087
758.991	-0.0045
759.304	-0.01
759.618	-0.0101
759.931	-0.0115
760.244	-0.0078
760.558	-0.0075
760.871	-0.0029
761.184	-0.001
761.497	-0.0023
761.81	-0.0104
762.123	-0.0112
762.436	-0.0066
762.749	-0.003
763.062	-0.0106
763.374	-0.0106
763.687	-0.0138
764	-0.0087
764.312	-0.0107
764.625	-0.0059
764.937	-0.0072
765.25	-0.0086
765.562	-0.0094
765.874	-0.0068
766.186	-0.0073
766.499	-0.0055
766.811	-0.0062
767.123	-0.0014
767.435	-0.0061
767.747	-0.0052
768.059	-0.0068
768.37	-0.004
768.682	-0.0081
768.994	-0.0098
769.306	-0.0107
769.617	-0.0103
769.929	-0.0067
770.24	-0.0092
770.552	-0.0048
770.863	-0.0071
771.174	-0.0099
771.486	-0.0117
771.797	-0.0116
772.108	-0.01
772.419	-0.0016
772.73	-0
773.041	-0.0006
773.352	-0.0071
773.663	-0.0108
773.974	-0.009
774.285	-0.0188
774.595	-0.0165
774.906	-0.0154
775.217	-0.0069
775.527	-0.0065
775.838	-0.004
776.148	-0.0038
776.458	-0.0031
776.769	-0.0079
777.079	-0.0096
777.389	-0.0142
777.699	-0.0115
778.009	-0.0104
778.319	-0.0051
778.629	-0.0054
778.939	-0.0075
779.249	-0.0122
779.559	-0.0114
779.869	-0.0134
780.178	-0.016
780.488	-0.0208
780.798	-0.0179
781.107	-0.0207
781.417	-0.0172
781.726	-0.0149
782.035	-0.0059
782.345	-0.0082
782.654	-0.0094
782.963	-0.0151
783.272	-0.0131
783.581	-0.0108
783.89	-0.0104
784.199	-0.0076
784.508	-0.0079
784.817	-0.0061
785.126	-0.0084
785.434	-0.0114
785.743	-0.0123
786.052	-0.0106
786.36	-0.0109
786.669	-0.0071
786.977	-0.0065
787.285	-0.0029
787.594	-0.0068
787.902	-0.0097
788.21	-0.0093
788.518	-0.0044
788.826	-0.0028
789.135	-0.0064
789.442	-0.0106
789.75	-0.0133
790.058	-0.0135
790.366	-0.017
790.674	-0.0166
790.981	-0.0148
791.289	-0.0079
791.597	-0.0063
791.904	-0.004
792.212	-0.0056
792.519	-0.0064
792.826	-0.0117
793.134	-0.005
793.441	-0.0049
793.748	-0.0051
794.055	-0.0131
794.362	-0.0123
794.669	-0.0124
794.976	-0.011
795.283	-0.0109
795.59	-0.0075
795.897	-0.0084
796.203	-0.006
796.51	-0.0034
796.817	-0.0068
797.123	-0.0086
797.43	-0.0138
797.736	-0.0104
798.042	-0.0091
798.349	-0.0023
798.655	-0.0031
798.961	-0.0021
799.267	-0.0076
799.573	-0.0122
799.879	-0.01
800.185	-0.0078
800.491	-0.0053
800.797	-0.015
801.103	-0.0139
801.408	-0.0148
801.714	-0.0135
802.02	-0.0119
802.325	-0.0104
802.631	-0.0045
802.936	-0.0126
803.242	-0.0136
803.547	-0.014
803.852	-0.0107
804.157	-0.0092
804.462	-0.0051
804.768	-0.0003
805.073	0.005
805.378	-0.0027
805.682	-0.0042
805.987	-0.0088
806.292	-0.0059
806.597	-0.0048
806.902	-0.007
807.206	-0.0119
807.511	-0.0164
807.815	-0.0062
808.12	0.0021
808.424	0.0071
808.728	-0.0043
809.033	-0.0052
809.337	-0.0097
809.641	-0.0089
809.945	-0.0167
810.249	-0.0194
810.553	-0.0147
810.857	-0.0106
811.161	-0.0062
811.465	-0.0085
811.768	-0.0184
812.072	-0.017
812.376	-0.0198
812.679	-0.007
812.983	-0.0104
813.286	-0.0123
813.59	-0.0169
813.893	-0.0139
814.196	-0.0072
814.499	-0.01
814.803	-0.0118
815.106	-0.0085
815.409	-0.0017
815.712	0.0026
816.015	-0.0013
816.318	-0.0015
816.62	-0.0043
816.923	-0.0041
817.226	-0.0044
817.528	-0.0111
817.831	-0.0184
818.133	-0.0251
818.436	-0.0185
818.738	-0.0143
819.041	-0.0065
819.343	-0.0012
819.645	-0.002
819.947	0.0008
820.249	-0.0027
820.551	0.0048
820.853	0.0003
821.155	-0.0129
821.457	-0.0191
821.759	-0.0137
822.061	-0.0018
822.362	-0.0022
822.664	-0.0035
822.966	-0.0074
823.267	-0.0033
823.569	-0.0124
823.87	-0.0069
824.171	-0.0153
824.473	-0.0114
824.774	-0.0147
825.075	-0.0047
825.376	-0.0066
825.677	-0.005
825.978	-0.0111
826.279	-0.0046
826.58	-0.0137
826.881	-0.0171
827.181	-0.0231
827.482	-0.0088
827.783	-0.0057
828.083	-0.0058
828.384	-0.0212
828.684	-0.0175
828.985	-0.0282
829.285	-0.0211
829.585	-0.0274
829.885	-0.01
830.185	-0.015
830.486	-0.0075
830.786	-0.0119
831.086	-0.0122
831.385	-0.0172
831.685	-0.0237
831.985	-0.0263
832.285	-0.0224
832.585	-0.0163
832.884	-0.0067
833.184	-0.0076
833.483	-0.0062
833.783	-0.0047
834.082	-0.0114
834.381	-0.0071
834.681	-0.0036
834.98	-0.001
835.279	-0.0102
835.578	-0.0231
835.877	-0.0167
836.176	-0.0139
836.475	0
836.774	-0.0194
837.072	-0.015
837.371	-0.0214
837.67	-0.0012
837.968	-0.0048
838.267	-0.0088
838.565	-0.0124
838.864	-0.0031
839.162	-0.0087
839.46	-0.0043
839.759	-0.0157
840.057	-0.0099
840.355	-0.0067
840.653	0.0004
840.951	0.0009
841.249	-0.009
841.547	-0.015
841.845	-0.0113
842.142	-0.0168
842.44	-0.0196
842.738	-0.0276
843.035	-0.0237
843.333	-0.0258
843.63	-0.0219
843.928	-0.0233
844.225	-0.016
844.522	-0.0105
844.82	-0.0113
845.117	-0.0159
845.414	-0.0152
845.711	-0.019
846.008	-0.0199
846.305	-0.0195
846.602	-0.0107
846.898	-0.0021
847.195	-0.0131
847.492	-0.0124
847.788	-0.0198
848.085	-0.0016
848.382	-0.0087
848.678	-0.0126
848.974	-0.0209
849.271	0.0011
849.567	-0.0043
849.863	-0.0093
850.159	-0.0234
850.455	-0.0203
850.751	-0.0113
851.047	-0.0175
851.343	-0.0143
851.639	-0.0253
851.935	-0.023
852.23	-0.0213
852.526	-0.0208
852.822	-0.0166
853.117	-0.0076
853.413	-0.0067
853.708	-0.0131
854.003	-0.0233
854.299	-0.0153
854.594	-0.0257
854.889	-0.0176
855.184	-0.0279
855.479	-0.0336
855.774	-0.0553
856.069	-0.042
856.364	-0.0346
856.659	-0.0196
856.954	-0.0343
857.248	-0.0221
857.543	-0.0227
857.837	-0.0102
858.132	-0.0104
858.426	-0.0082
858.721	-0.0007
859.015	0.006
859.309	0.0115
859.604	-0.0054
859.898	0.005
860.192	0.0014
860.486	0.0063
860.78	-0.0162
861.074	-0.0214
861.367	-0.0276
861.661	-0.0218
861.955	-0.0168
862.248	0.0049
862.542	-0.0057
862.836	0.0075
863.129	0.0107
863.422	0.0165
863.716	0.0056
864.009	-0.0185
864.302	-0.0159
864.595	-0.0439
864.889	-0.0442
865.182	-0.0493
865.475	-0.0342
865.767	-0.0435
866.06	-0.0365
866.353	-0.0168
866.646	-0.0216
866.938	-0.021
867.231	-0.0143
867.524	0.0275
867.816	0.0154
868.109	-0.0126
868.401	-0.0428
868.693	-0.0241
868.985	-0.0141
869.278	-0.0178
869.57	-0.0197
869.862	-0.0199
870.154	0.0048
870.446	-0.0043
870.738	-0.0064
871.029	-0.0314
871.321	-0.029
871.613	-0.0222
871.904	-0.0221
872.196	-0.0395
872.487	-0.0375
872.779	-0.0119
873.07	0.0017
873.362	-0.0213
873.653	-0.0541
873.944	-0.0434
874.235	-0.0382
874.526	-0.0141
874.817	-0.0024
875.108	0.0148
875.399	0.0076
875.69	-0.024
875.981	-0.0464
876.271	-0.0369
876.562	-0.0413
876.853	-0.0307
877.143	-0.0581
877.434	-0.0368
877.724	-0.0419
878.014	-0.0174
878.305	-0.0259
878.595	-0.0442
878.885	-0.0428
879.175	-0.0307
879.465	0.027
879.755	0.02
880.045	-0.0049
880.335	-0.0557
880.624	-0.0717
880.914	-0.0717
