Data from 48SS08LI_071217_1b_Absorbance_22-29-01-731.txt Node
Date: Tue Jul 18 22:29:01 MDT 2017
User: Tank Lab
Spectrometer: FLMS01220
Trigger mode: 0
Integration Time (sec): 1.000000E-1
Scans to average: 10
Electric dark correction enabled: true
Nonlinearity correction enabled: false
Boxcar width: 1
XAxis mode: Wavelengths
Number of Pixels in Spectrum: 2048
>>>>>Begin Spectral Data<<<<<
179.47	0.0499
179.856	0.0499
180.241	0.2116
180.626	-0
181.011	-0
181.396	-0
181.781	1.0934
182.166	-0
182.551	0.0228
182.936	0.2629
183.321	-0
183.706	0.0698
184.091	0.1203
184.476	0.1945
184.86	-0.1539
185.245	1.1813
185.63	-0
186.015	1.4092
186.399	-0.3121
186.784	0.6776
187.169	0.2779
187.553	0.0769
187.938	0.2581
188.322	0.2916
188.707	0.2358
189.091	0.1666
189.475	0.1421
189.86	0.1329
190.244	0.1706
190.629	0.1923
191.013	0.2458
191.397	0.2804
191.781	0.3309
192.165	0.3626
192.55	0.4138
192.934	0.4254
193.318	0.4502
193.702	0.478
194.086	0.5017
194.47	0.528
194.854	0.5307
195.238	0.5319
195.622	0.5288
196.006	0.5235
196.389	0.5269
196.773	0.5219
197.157	0.5256
197.541	0.5268
197.924	0.5208
198.308	0.4891
198.692	0.468
199.075	0.4614
199.459	0.4691
199.843	0.4664
200.226	0.4528
200.61	0.4406
200.993	0.4351
201.376	0.4268
201.76	0.4173
202.143	0.4133
202.527	0.414
202.91	0.4112
203.293	0.4033
203.676	0.3989
204.059	0.3979
204.443	0.3995
204.826	0.3974
205.209	0.3882
205.592	0.3767
205.975	0.3691
206.358	0.3658
206.741	0.3638
207.124	0.3539
207.507	0.3499
207.89	0.3426
208.273	0.3408
208.655	0.3351
209.038	0.3314
209.421	0.3316
209.804	0.3367
210.186	0.3301
210.569	0.3228
210.951	0.3121
211.334	0.3118
211.717	0.3114
212.099	0.3096
212.482	0.3076
212.864	0.3029
213.246	0.2988
213.629	0.2964
214.011	0.2961
214.393	0.2964
214.776	0.2932
215.158	0.289
215.54	0.2852
215.922	0.284
216.305	0.2824
216.687	0.2804
217.069	0.2783
217.451	0.2752
217.833	0.2746
218.215	0.2705
218.597	0.2654
218.979	0.2601
219.361	0.2582
219.742	0.2557
220.124	0.2563
220.506	0.2552
220.888	0.2547
221.27	0.2504
221.651	0.2454
222.033	0.2437
222.415	0.2415
222.796	0.2403
223.178	0.2396
223.559	0.2367
223.941	0.2351
224.322	0.2316
224.704	0.2304
225.085	0.2272
225.466	0.2244
225.848	0.2214
226.229	0.2208
226.61	0.2203
226.992	0.2194
227.373	0.2156
227.754	0.2128
228.135	0.2111
228.516	0.2123
228.897	0.2105
229.278	0.2084
229.659	0.2058
230.04	0.2047
230.421	0.2015
230.802	0.1982
231.183	0.1973
231.564	0.1985
231.944	0.1983
232.325	0.1961
232.706	0.1939
233.087	0.1913
233.467	0.1899
233.848	0.1887
234.229	0.1885
234.609	0.1871
234.99	0.185
235.37	0.1847
235.751	0.1843
236.131	0.1837
236.511	0.1812
236.892	0.1785
237.272	0.1769
237.652	0.1752
238.033	0.1746
238.413	0.1732
238.793	0.172
239.173	0.1713
239.553	0.172
239.933	0.173
240.313	0.1713
240.694	0.1675
241.074	0.1654
241.453	0.165
241.833	0.1652
242.213	0.1642
242.593	0.1641
242.973	0.1634
243.353	0.1613
243.732	0.1584
244.112	0.1576
244.492	0.1562
244.872	0.1568
245.251	0.156
245.631	0.1568
246.01	0.155
246.39	0.1525
246.769	0.1508
247.149	0.1507
247.528	0.1511
247.908	0.1498
248.287	0.1502
248.666	0.1492
249.045	0.1485
249.425	0.1458
249.804	0.1442
250.183	0.1453
250.562	0.144
250.941	0.1452
251.32	0.1441
251.699	0.145
252.078	0.1436
252.457	0.1428
252.836	0.1416
253.215	0.1409
253.594	0.1413
253.973	0.1398
254.352	0.14
254.731	0.1407
255.109	0.1405
255.488	0.1389
255.867	0.136
256.245	0.1364
256.624	0.1354
257.002	0.135
257.381	0.1332
257.759	0.1331
258.138	0.1322
258.516	0.1326
258.895	0.1328
259.273	0.1332
259.651	0.132
260.03	0.1321
260.408	0.1305
260.786	0.1299
261.164	0.129
261.542	0.1286
261.921	0.1296
262.299	0.1286
262.677	0.128
263.055	0.1268
263.433	0.1255
263.811	0.1252
264.188	0.1227
264.566	0.1219
264.944	0.1218
265.322	0.124
265.7	0.1248
266.077	0.1234
266.455	0.1202
266.833	0.1195
267.21	0.1195
267.588	0.1218
267.966	0.1212
268.343	0.1213
268.721	0.1204
269.098	0.1202
269.475	0.1188
269.853	0.1186
270.23	0.1171
270.607	0.1172
270.985	0.1151
271.362	0.1136
271.739	0.1139
272.116	0.1126
272.494	0.1134
272.871	0.1117
273.248	0.1119
273.625	0.1116
274.002	0.1098
274.379	0.1103
274.756	0.109
275.132	0.1087
275.509	0.1071
275.886	0.1061
276.263	0.1067
276.64	0.1054
277.016	0.1042
277.393	0.1036
277.77	0.1029
278.146	0.1043
278.523	0.1034
278.899	0.1042
279.276	0.1026
279.652	0.1016
280.029	0.0997
280.405	0.1003
280.782	0.0988
281.158	0.0983
281.534	0.0985
281.91	0.1
282.287	0.1001
282.663	0.0988
283.039	0.0982
283.415	0.0958
283.791	0.0946
284.167	0.0923
284.543	0.0931
284.919	0.0918
285.295	0.092
285.671	0.0929
286.047	0.0921
286.423	0.0919
286.799	0.0903
287.174	0.0908
287.55	0.0889
287.926	0.0877
288.301	0.0875
288.677	0.0878
289.053	0.0878
289.428	0.0867
289.804	0.0866
290.179	0.0856
290.555	0.0841
290.93	0.0833
291.305	0.0826
291.681	0.0823
292.056	0.0823
292.431	0.0817
292.806	0.0824
293.182	0.0826
293.557	0.0833
293.932	0.0817
294.307	0.0788
294.682	0.0773
295.057	0.0759
295.432	0.0756
295.807	0.0752
296.182	0.0776
296.557	0.077
296.932	0.0766
297.306	0.0744
297.681	0.0755
298.056	0.0762
298.43	0.0767
298.805	0.0754
299.18	0.0721
299.554	0.0699
299.929	0.0708
300.303	0.0729
300.678	0.0739
301.052	0.0735
301.427	0.0731
301.801	0.0722
302.175	0.072
302.55	0.0709
302.924	0.071
303.298	0.0691
303.672	0.0683
304.046	0.0674
304.421	0.0665
304.795	0.0667
305.169	0.065
305.543	0.0654
305.917	0.0637
306.291	0.0652
306.664	0.065
307.038	0.0639
307.412	0.0633
307.786	0.0624
308.16	0.0631
308.533	0.0624
308.907	0.063
309.281	0.0634
309.654	0.064
310.028	0.0625
310.401	0.0619
310.775	0.0603
311.148	0.061
311.522	0.0594
311.895	0.0595
312.268	0.0584
312.642	0.0598
313.015	0.0582
313.388	0.0565
313.761	0.056
314.135	0.0546
314.508	0.0559
314.881	0.0547
315.254	0.0562
315.627	0.0569
316	0.0576
316.373	0.0567
316.746	0.0544
317.118	0.0535
317.491	0.0543
317.864	0.0546
318.237	0.0544
318.61	0.0533
318.982	0.0533
319.355	0.0531
319.727	0.053
320.1	0.0521
320.473	0.0517
320.845	0.0509
321.218	0.0515
321.59	0.052
321.962	0.0515
322.335	0.0506
322.707	0.049
323.079	0.0499
323.452	0.0488
323.824	0.0502
324.196	0.0496
324.568	0.0502
324.94	0.0478
325.312	0.0493
325.684	0.0493
326.056	0.0494
326.428	0.0469
326.8	0.046
327.172	0.0469
327.544	0.0442
327.915	0.0435
328.287	0.0412
328.659	0.043
329.031	0.0427
329.402	0.0439
329.774	0.0428
330.145	0.0425
330.517	0.0418
330.888	0.0412
331.26	0.0394
331.631	0.0396
332.003	0.0399
332.374	0.0409
332.745	0.0398
333.117	0.0404
333.488	0.0416
333.859	0.0416
334.23	0.0395
334.601	0.0383
334.972	0.0376
335.343	0.0397
335.714	0.0403
336.085	0.0399
336.456	0.0378
336.827	0.0359
337.198	0.0351
337.569	0.0357
337.94	0.0363
338.31	0.0361
338.681	0.0356
339.052	0.0349
339.422	0.0343
339.793	0.0349
340.164	0.0369
340.534	0.036
340.905	0.0351
341.275	0.0338
341.645	0.0366
342.016	0.0351
342.386	0.0355
342.756	0.0348
343.127	0.0358
343.497	0.0357
343.867	0.033
344.237	0.0315
344.607	0.0296
344.977	0.0301
345.347	0.0286
345.717	0.0281
346.087	0.0282
346.457	0.0305
346.827	0.03
347.197	0.0305
347.567	0.0297
347.936	0.0314
348.306	0.0323
348.676	0.0331
349.046	0.0317
349.415	0.0297
349.785	0.0296
350.154	0.0292
350.524	0.0303
350.893	0.028
351.263	0.0286
351.632	0.0267
352.001	0.0293
352.371	0.0296
352.74	0.0307
353.109	0.0284
353.478	0.0294
353.847	0.0288
354.217	0.0295
354.586	0.0273
354.955	0.0295
355.324	0.0294
355.693	0.0301
356.062	0.0282
356.43	0.0273
356.799	0.027
357.168	0.0266
357.537	0.0277
357.906	0.0269
358.274	0.0278
358.643	0.0272
359.011	0.0259
359.38	0.0244
359.749	0.0223
360.117	0.0231
360.486	0.022
360.854	0.0244
361.222	0.0242
361.591	0.0235
361.959	0.0222
362.327	0.0221
362.695	0.0222
363.064	0.0225
363.432	0.0199
363.8	0.021
364.168	0.0214
364.536	0.0236
364.904	0.0235
365.272	0.0224
365.64	0.0216
366.008	0.0207
366.376	0.0194
366.743	0.0192
367.111	0.0203
367.479	0.0216
367.847	0.0215
368.214	0.0215
368.582	0.0216
368.949	0.023
369.317	0.0235
369.684	0.0228
370.052	0.0225
370.419	0.0217
370.787	0.0208
371.154	0.0198
371.521	0.0191
371.889	0.0194
372.256	0.019
372.623	0.0176
372.99	0.0173
373.357	0.0172
373.724	0.0188
374.091	0.018
374.458	0.0155
374.825	0.0135
375.192	0.0151
375.559	0.0165
375.926	0.017
376.293	0.0159
376.659	0.0164
377.026	0.0153
377.393	0.0151
377.759	0.0145
378.126	0.0167
378.492	0.0156
378.859	0.0157
379.225	0.0136
379.592	0.0143
379.958	0.016
380.325	0.0168
380.691	0.0155
381.057	0.0158
381.423	0.0158
381.79	0.0184
382.156	0.017
382.522	0.0189
382.888	0.0173
383.254	0.0156
383.62	0.0142
383.986	0.0151
384.352	0.0175
384.718	0.0181
385.084	0.0203
385.449	0.0199
385.815	0.0168
386.181	0.0149
386.547	0.0136
386.912	0.0135
387.278	0.0106
387.643	0.0111
388.009	0.0124
388.374	0.0127
388.74	0.0124
389.105	0.0135
389.471	0.0146
389.836	0.0141
390.201	0.0135
390.566	0.0147
390.932	0.017
391.297	0.0178
391.662	0.0174
392.027	0.015
392.392	0.0126
392.757	0.0106
393.122	0.009
393.487	0.009
393.852	0.0109
394.217	0.0136
394.582	0.0161
394.946	0.0163
395.311	0.0163
395.676	0.0166
396.04	0.0108
396.405	0.0088
396.77	0.0068
397.134	0.013
397.499	0.0134
397.863	0.0111
398.227	0.007
398.592	0.0086
398.956	0.0112
399.32	0.0152
399.685	0.0135
400.049	0.0152
400.413	0.0147
400.777	0.0134
401.141	0.0131
401.505	0.0125
401.869	0.0122
402.233	0.0077
402.597	0.0076
402.961	0.0094
403.325	0.0137
403.689	0.0136
404.053	0.0118
404.416	0.0083
404.78	0.007
405.144	0.0083
405.507	0.0103
405.871	0.0092
406.234	0.0118
406.598	0.0103
406.961	0.0104
407.325	0.0077
407.688	0.0076
408.051	0.0104
408.415	0.0097
408.778	0.0109
409.141	0.0084
409.504	0.0084
409.867	0.0077
410.23	0.0077
410.593	0.0067
410.956	0.0081
411.319	0.0095
411.682	0.012
412.045	0.0119
412.408	0.0101
412.771	0.0077
413.134	0.0068
413.496	0.0078
413.859	0.0091
414.222	0.0086
414.584	0.0077
414.947	0.0077
415.309	0.0081
415.672	0.0087
416.034	0.0095
416.396	0.0106
416.759	0.0119
417.121	0.0113
417.483	0.0086
417.846	0.0074
418.208	0.0071
418.57	0.009
418.932	0.0093
419.294	0.009
419.656	0.008
420.018	0.0078
420.38	0.0075
420.742	0.0076
421.104	0.0072
421.466	0.0066
421.827	0.0078
422.189	0.0062
422.551	0.0068
422.912	0.0066
423.274	0.0105
423.636	0.0128
423.997	0.0124
424.359	0.0121
424.72	0.0106
425.081	0.0099
425.443	0.0063
425.804	0.0061
426.165	0.0045
426.527	0.0024
426.888	0.0019
427.249	0.0042
427.61	0.0087
427.971	0.0069
428.332	0.0057
428.693	0.0029
429.054	0.0046
429.415	0.0046
429.776	0.0055
430.137	0.0062
430.498	0.0047
430.858	0.0053
431.219	0.0064
431.58	0.0064
431.94	0.0095
432.301	0.0094
432.661	0.0102
433.022	0.0065
433.382	0.0065
433.743	0.0022
434.103	0.0029
434.463	-0.0036
434.824	-0.0002
435.184	0.0005
435.544	0.0051
435.904	0.007
436.264	0.0074
436.624	0.0076
436.985	0.0064
437.345	0.0062
437.704	0.0068
438.064	0.0091
438.424	0.0064
438.784	0.0054
439.144	0.0095
439.504	0.0093
439.863	0.0075
440.223	0.0003
440.583	0.0022
440.942	0.0055
441.302	0.007
441.661	0.0061
442.021	0.0023
442.38	0.0008
442.739	0.0009
443.099	0.0033
443.458	0.0032
443.817	0.0054
444.176	0.006
444.536	0.0077
444.895	0.0065
445.254	0.0062
445.613	0.007
445.972	0.0053
446.331	0.002
446.69	-0.0013
447.049	0.0004
447.407	0.004
447.766	0.0061
448.125	0.0044
448.484	0.0031
448.842	0.0056
449.201	0.0064
449.559	0.0086
449.918	0.0039
450.276	0.0052
450.635	0.0032
450.993	0.0049
451.352	0.0052
451.71	0.0034
452.068	0.0032
452.426	0.003
452.785	0.0034
453.143	0.0059
453.501	0.0045
453.859	0.0073
454.217	0.0045
454.575	0.004
454.933	0.0039
455.291	0.0053
455.649	0.0041
456.006	0.0035
456.364	0.0055
456.722	0.0047
457.079	0.0047
457.437	0.002
457.795	0.0073
458.152	0.0076
458.51	0.008
458.867	0.0048
459.225	0.0036
459.582	0.0055
459.939	0.0042
460.297	0.0017
460.654	-0.0009
461.011	-0.0008
461.368	0.0027
461.725	0.0029
462.082	0.004
462.44	0.0031
462.797	0.0024
463.153	0.0026
463.51	0.0031
463.867	0.0069
464.224	0.005
464.581	0.0017
464.938	0.0005
465.294	0.0029
465.651	0.0049
466.008	0.0032
466.364	0.0005
466.721	0.0033
467.077	0.0032
467.434	0.0055
467.79	0.0057
468.146	0.0079
468.503	0.0115
468.859	0.0058
469.215	0.0023
469.571	-0.0027
469.927	0.0001
470.284	-0.0002
470.64	0.0028
470.996	0.0039
471.352	0.006
471.707	0.0038
472.063	0.0022
472.419	0.002
472.775	-0.0003
473.131	0.003
473.486	0.0023
473.842	0.0058
474.198	0.005
474.553	0.0057
474.909	0.0056
475.264	0.0067
475.62	0.0073
475.975	0.0065
476.331	0.0044
476.686	0.0041
477.041	0.0029
477.396	0.0079
477.752	0.0094
478.107	0.0091
478.462	0.0041
478.817	0.0035
479.172	0.0062
479.527	0.0072
479.882	0.0069
480.237	0.0056
480.591	0.0043
480.946	0.001
481.301	0.0009
481.656	-0.0005
482.01	0.0009
482.365	-0.0009
482.72	0.0026
483.074	0.0052
483.429	0.0073
483.783	0.0044
484.137	0.006
484.492	0.0057
484.846	0.0062
485.2	-0.0006
485.555	-0.0024
485.909	-0.0001
486.263	0.0039
486.617	0.0048
486.971	0.0059
487.325	0.0077
487.679	0.0106
488.033	0.0045
488.387	0.0096
488.741	0.0093
489.094	0.0053
489.448	-0.0027
489.802	0.0007
490.156	0.0071
490.509	0.0034
490.863	-0.0046
491.216	-0.0013
491.57	0.0005
491.923	0.0028
492.277	-0.0027
492.63	-0.0004
492.983	-0.0008
493.337	0.0006
493.69	0.002
494.043	0.0016
494.396	0.0016
494.749	0.0007
495.102	0.0001
495.455	-0.0002
495.808	-0.0011
496.161	0.0028
496.514	0.0035
496.867	0.005
497.22	0.0029
497.572	0.0011
497.925	0.0011
498.278	-0.0026
498.63	0.0028
498.983	0.0023
499.335	0.0067
499.688	0.0003
500.04	-0.0023
500.393	-0.0049
500.745	-0.0019
501.097	0.0016
501.449	0.0008
501.802	-0.0006
502.154	0
502.506	0.0003
502.858	-0.0001
503.21	-0.0038
503.562	-0.0017
503.914	0.0034
504.266	0.0088
504.618	0.0049
504.969	0.003
505.321	-0.0017
505.673	0.0007
506.025	-0.0001
506.376	0.0012
506.728	-0.0015
507.079	-0.003
507.431	-0.0036
507.782	0.0003
508.134	0.0013
508.485	-0.0014
508.836	-0.0049
509.188	-0.0041
509.539	-0.0013
509.89	-0.0016
510.241	-0.0041
510.592	0.0018
510.943	0.0004
511.294	0.0014
511.645	-0.0051
511.996	-0.0024
512.347	-0.0014
512.698	0.0008
513.049	0.0013
513.399	0.001
513.75	-0.0004
514.101	0.0019
514.451	0.0023
514.802	0.0044
515.152	0.0037
515.503	0.0074
515.853	0.0042
516.203	0.0006
516.554	-0.005
516.904	-0.0021
517.254	-0
517.604	0.001
517.955	-0.0031
518.305	0.0011
518.655	0.002
519.005	0.0055
519.355	0.0041
519.705	0.0005
520.055	-0.0032
520.404	-0.0051
520.754	0.0006
521.104	0.0059
521.454	0.0067
521.803	0.0031
522.153	-0.0008
522.502	-0.004
522.852	-0.0047
523.201	-0.0038
523.551	-0.0023
523.9	0.0012
524.249	0.0038
524.599	0.0041
524.948	0.0018
525.297	0.002
525.646	0.0017
525.995	-0.0002
526.344	-0.0035
526.694	-0.0013
527.042	-0.0033
527.391	-0.0026
527.74	-0.0041
528.089	0.0005
528.438	0.0018
528.787	-0.0001
529.135	-0.0005
529.484	0.0022
529.833	0.0025
530.181	0.0009
530.53	-0.0042
530.878	-0.0029
531.227	-0.0003
531.575	0.0049
531.923	0.0012
532.271	0.0008
532.62	-0.0003
532.968	0.0016
533.316	0.0005
533.664	0.0009
534.012	0.0026
534.36	0.0029
534.708	-0.0017
535.056	-0.0035
535.404	-0.0061
535.752	-0.0023
536.1	-0.0019
536.447	0.0003
536.795	0.0013
537.143	0.0038
537.49	0.004
537.838	-0.0004
538.185	-0.0041
538.533	-0.0043
538.88	0.0003
539.228	0.002
539.575	0.0019
539.922	-0.0014
540.269	0.0028
540.617	0.0026
540.964	0.0006
541.311	-0.0034
541.658	0
542.005	0.0031
542.352	0.002
542.699	-0.0044
543.045	-0.0079
543.392	-0.0026
543.739	-0
544.086	0.0018
544.432	-0.0034
544.779	0.0003
545.126	0.0003
545.472	0.0001
545.819	-0.0023
546.165	-0.0034
546.512	-0.0014
546.858	0.0007
547.204	0.0022
547.55	0.001
547.897	-0.0017
548.243	-0.0054
548.589	-0.0031
548.935	-0.0042
549.281	-0.0025
549.627	-0.0033
549.973	-0.0005
550.319	0.0021
550.665	0.0014
551.01	-0.0034
551.356	-0.006
551.702	-0.0078
552.048	-0.0091
552.393	-0.0089
552.739	-0.0054
553.084	-0.0014
553.43	-0.0035
553.775	-0.0075
554.12	-0.0073
554.466	0.0002
554.811	-0.0004
555.156	-0.0001
555.502	-0.0008
555.847	0.0013
556.192	0.0006
556.537	-0.0046
556.882	-0.0048
557.227	-0.0094
557.572	-0.0031
557.917	0.0029
558.261	0.0018
558.606	-0.0036
558.951	-0.0104
559.295	-0.0106
559.64	-0.0086
559.985	-0.007
560.329	-0.0002
560.674	0.001
561.018	-0.0025
561.363	-0.005
561.707	-0.0078
562.051	-0.0027
562.395	0.0062
562.74	0.0079
563.084	0.0056
563.428	0.0019
563.772	-0.0002
564.116	-0.0016
564.46	-0.0052
564.804	-0.0004
565.148	-0.0049
565.492	-0.001
565.835	-0.0006
566.179	0.0052
566.523	-0.0022
566.866	-0.0071
567.21	-0.0056
567.554	-0.0011
567.897	0.0006
568.24	-0.0062
568.584	-0.0071
568.927	-0.0072
569.271	-0.0034
569.614	-0.002
569.957	0
570.3	0.0038
570.643	0.0051
570.986	0.0033
571.329	0.0056
571.672	0.0064
572.015	0.0031
572.358	0.0022
572.701	0.0067
573.044	0.0037
573.387	0.0004
573.729	0.0007
574.072	0.0061
574.414	0.0062
574.757	0.0053
575.099	-0.0092
575.442	-0.0139
575.784	-0.0032
576.127	0.0072
576.469	0.0067
576.811	-0.0043
577.153	-0.0023
577.496	-0.0015
577.838	-0.0001
578.18	-0.0139
578.522	-0.014
578.864	-0.0178
579.206	0.0049
579.548	0.0054
579.889	-0.0039
580.231	0.0064
580.573	0.0147
580.915	0.0108
581.256	-0.0104
581.598	-0.0268
581.939	-0.0283
582.281	-0.0042
582.622	-0.0059
582.964	0.0002
583.305	-0.0131
583.646	-0.0018
583.988	0.0295
584.329	0.0171
584.67	0.0049
585.011	-0.0211
585.352	-0.0273
585.693	-0.0163
586.034	-0.0223
586.375	-0.0187
586.716	-0.0137
587.057	-0.0062
587.398	0.0097
587.738	0.0143
588.079	0.0047
588.42	-0.0006
588.76	-0.0188
589.101	-0.0155
589.441	-0.0193
589.782	-0.0075
590.122	0.0018
590.463	0.0031
590.803	-0.0049
591.143	-0.0041
591.483	-0.0127
591.823	-0.0159
592.164	-0.0196
592.504	-0.0057
592.844	-0.0014
593.184	-0.0057
593.523	-0.0159
593.863	-0.013
594.203	-0.0054
594.543	0.006
594.883	-0.0017
595.222	0.0034
595.562	0.0158
595.901	0.0139
596.241	0.0012
596.58	-0.0145
596.92	-0.0212
597.259	-0.0244
597.599	-0.0173
597.938	0.0033
598.277	0.0045
598.616	-0.0104
598.955	-0.0184
599.295	-0.0127
599.634	0.0033
599.973	0.0056
600.312	0.0085
600.65	-0.0058
600.989	-0.0069
601.328	-0.001
601.667	0.0189
602.005	0.0047
602.344	-0.0027
602.683	-0.0062
603.021	-0.0001
603.36	-0.0108
603.698	-0.0186
604.037	-0.0186
604.375	-0.0132
604.713	-0.0164
605.052	-0.0145
605.39	-0.0119
605.728	-0.0084
606.066	0.0085
606.404	0.0099
606.742	0.0037
607.08	-0.0049
607.418	-0.0128
607.756	-0.0043
608.094	0.0004
608.431	0.0034
608.769	0.0068
609.107	-0.0107
609.444	-0.0023
609.782	-0.0094
610.12	0.0051
610.457	-0.0012
610.794	-0.0149
611.132	-0.0172
611.469	-0.0198
611.806	-0.0162
612.144	-0.0215
612.481	-0.0119
612.818	0.0028
613.155	-0.0049
613.492	-0.0129
613.829	-0.0161
614.166	-0.0037
614.503	-0.0033
614.84	-0.0089
615.176	-0.0103
615.513	-0.0057
615.85	-0.0024
616.187	0.0005
616.523	-0.0056
616.86	-0.0062
617.196	0
617.533	0.014
617.869	0.0067
618.205	-0.0027
618.542	-0.0191
618.878	-0.0238
619.214	-0.0162
619.55	-0.0088
619.886	-0.0024
620.222	-0.0141
620.558	-0.0092
620.894	0.0014
621.23	0.0005
621.566	-0.0058
621.902	-0.0129
622.238	-0.0148
622.573	0.0018
622.909	-0.0042
623.244	0.0021
623.58	-0.0182
623.916	-0.018
624.251	-0.0021
624.586	0.0174
624.922	0.0157
625.257	-0.0073
625.592	-0.0186
625.927	-0.0113
626.263	-0.0062
626.598	-0.0034
626.933	-0.0015
627.268	0.0024
627.603	-0.0076
627.938	-0.0161
628.272	-0.0099
628.607	-0.0069
628.942	-0.0031
629.277	-0.0109
629.611	0
629.946	0.0067
630.281	-0.0014
630.615	-0.0059
630.949	-0.0189
631.284	-0.013
631.618	-0.0083
631.953	-0.0002
632.287	-0.0029
632.621	-0.0101
632.955	-0.0142
633.289	-0.012
633.623	-0.0085
633.957	-0.006
634.291	-0.0055
634.625	-0.0027
634.959	-0.0083
635.293	-0.0016
635.627	-0.0012
635.96	0.005
636.294	-0.0035
636.627	-0.005
636.961	0.0006
637.294	0.0005
637.628	-0.0068
637.961	-0.0097
638.295	-0.0056
638.628	0.0022
638.961	0.0013
639.294	0.0006
639.628	-0.0078
639.961	-0.0168
640.294	-0.0162
640.627	-0.0061
640.96	0.0019
641.293	0.0047
641.625	0.0004
641.958	-0.0028
642.291	-0.0087
642.624	-0.0076
642.956	-0.0084
643.289	-0.0054
643.621	-0.0052
643.954	-0.0032
644.286	-0.0022
644.619	-0.0048
644.951	-0.0053
645.283	-0.0104
645.616	-0.004
645.948	-0.0022
646.28	0.0058
646.612	0.0021
646.944	0.0016
647.276	-0.0024
647.608	-0.0001
647.94	0.0006
648.272	0.0024
648.603	-0.0018
648.935	0
649.267	-0.0007
649.598	0.0011
649.93	-0.0038
650.261	-0.0024
650.593	0.0026
650.924	0.0138
651.256	0.0102
651.587	0.0029
651.918	-0.0052
652.25	-0.0074
652.581	-0.0081
652.912	-0.0084
653.243	-0.0062
653.574	-0.0052
653.905	-0.0003
654.236	-0.0032
654.567	0.0013
654.897	-0.0033
655.228	-0.0041
655.559	-0.0025
655.89	0.0026
656.22	0.0023
656.551	-0.0005
656.881	-0.0056
657.212	-0.0029
657.542	-0.0038
657.872	0.0007
658.203	0.0105
658.533	0.1142
658.863	0.0598
659.193	0.0112
659.523	-0.0433
659.853	-0.0942
660.183	-0.0557
660.513	-0.0254
660.843	-0.0105
661.173	-0.0049
661.503	-0.0048
661.833	-0.0061
662.162	-0.0087
662.492	-0.0094
662.822	-0.0106
663.151	-0.0108
663.481	-0.0059
663.81	0.0027
664.139	0.0069
664.469	0.0011
664.798	-0.0065
665.127	-0.0083
665.456	-0.004
665.785	-0.0046
666.114	-0.0043
666.443	-0.0014
666.772	0.0004
667.101	0.0017
667.43	0.0012
667.759	0.0011
668.088	-0.0005
668.416	-0.0075
668.745	-0.0036
669.074	-0.0031
669.402	0.003
669.731	-0.0028
670.059	-0.0038
670.388	-0.0077
670.716	-0.0013
671.044	-0.0005
671.372	0.0017
671.701	-0.003
672.029	0.003
672.357	0.0048
672.685	0.0082
673.013	0.0071
673.341	0.0008
673.669	-0.0015
673.996	-0.0039
674.324	0.0117
674.652	0.0095
674.98	0.0067
675.307	-0.0017
675.635	-0.0032
675.962	-0.0021
676.29	-0.0051
676.617	-0.0022
676.945	-0.0031
677.272	-0.0051
677.599	-0.0036
677.926	-0.0056
678.253	-0.0015
678.581	-0.0049
678.908	-0.0014
679.235	0.005
679.561	0.0005
679.888	-0.006
680.215	-0.0106
680.542	0.0056
680.869	0.0044
681.195	-0.0026
681.522	-0.0112
681.849	-0.0068
682.175	0.0026
682.502	0.0058
682.828	0.0048
683.154	-0.0007
683.481	-0.0073
683.807	-0.0114
684.133	0.0006
684.459	0.0042
684.785	0.0112
685.111	-0.0012
685.437	-0.0026
685.763	-0.0086
686.089	-0.0034
686.415	-0.0005
686.741	0.0018
687.067	0.0022
687.392	-0.0019
687.718	0.0001
688.043	0.003
688.369	0.0025
688.694	-0.0043
689.02	-0.0101
689.345	-0.0126
689.67	-0.0076
689.996	-0.0078
690.321	0.0003
690.646	-0.0029
690.971	-0.0021
691.296	-0.0049
691.621	-0.0007
691.946	0.001
692.271	0.0039
692.596	0.0024
692.921	-0.0019
693.245	-0.0098
693.57	-0.004
693.895	0.0055
694.219	0.0072
694.544	-0.0068
694.868	-0.0163
695.193	-0.0145
695.517	-0.0034
695.841	0.0018
696.166	-0.0041
696.49	-0.0061
696.814	-0.0113
697.138	-0.0066
697.462	-0.0044
697.786	0.0001
698.11	0.0091
698.434	0.0017
698.758	-0.0067
699.081	-0.0186
699.405	-0.0088
699.729	0.0159
700.052	0.0146
700.376	0.0059
700.7	-0.0086
701.023	-0.0114
701.346	-0.0059
701.67	-0.0052
701.993	0.0011
702.316	0.0036
702.639	0.0074
702.963	0.0007
703.286	-0.0028
703.609	-0.0026
703.932	-0.0032
704.255	-0.0039
704.578	-0.0017
704.9	0.0056
705.223	0.0091
705.546	0.0025
705.868	-0.0038
706.191	-0.0107
706.514	-0.0157
706.836	-0.0141
707.159	-0.0041
707.481	0
707.803	0.0033
708.126	-0.0027
708.448	0.0021
708.77	0.0025
709.092	0.0065
709.414	0.0108
709.736	0.0102
710.058	0.0053
710.38	-0.0024
710.702	-0.0079
711.024	-0.0092
711.345	-0.0113
711.667	-0.0101
711.989	-0.0098
712.31	-0.0068
712.632	-0.002
712.953	-0.0041
713.275	-0.0012
713.596	-0.0036
713.917	-0.0026
714.239	-0.0092
714.56	-0.0091
714.881	-0.0062
715.202	-0.0017
715.523	0.0097
715.844	0.0055
716.165	0.0084
716.486	-0.008
716.807	-0.0067
717.128	-0.0075
717.448	-0.0023
717.769	-0.0021
718.09	-0.0044
718.41	-0.0051
718.731	-0.0076
719.051	-0.0086
719.372	-0.0103
719.692	-0.0049
720.012	-0.0003
720.332	-0.004
720.653	-0.0026
720.973	0.004
721.293	-0.0014
721.613	-0.009
721.933	-0.0182
722.253	-0.0059
722.573	-0.005
722.892	-0.0072
723.212	-0.009
723.532	-0.0023
723.851	-0.0019
724.171	-0.0042
724.491	-0.0039
724.81	-0.0009
725.129	0.0002
725.449	-0.0005
725.768	-0.0004
726.087	0.0009
726.407	-0.0042
726.726	-0.0055
727.045	-0.0058
727.364	0.0023
727.683	0.0015
728.002	0.0063
728.321	-0.0001
728.64	-0.005
728.958	-0.0073
729.277	-0.0073
729.596	-0.0058
729.914	-0.0079
730.233	-0.0027
730.551	0.005
730.87	0.0072
731.188	0.0069
731.507	-0.0007
731.825	-0.0019
732.143	-0.0064
732.461	0.0026
732.779	-0.0018
733.097	-0.001
733.415	0.0029
733.733	0.0127
734.051	0.0025
734.369	-0.0043
734.687	-0.0156
735.005	-0.0101
735.322	-0.0116
735.64	-0.0026
735.957	-0.0022
736.275	-0.0052
736.592	-0.0025
736.91	0.0001
737.227	0.0044
737.544	-0.0078
737.862	-0.0079
738.179	-0.0079
738.496	-0.0008
738.813	-0.0056
739.13	-0.0169
739.447	-0.0164
739.764	-0.0067
740.081	0.003
740.398	-0.0054
740.714	-0.0073
741.031	-0.0078
741.348	-0.0005
741.664	0.0012
741.981	0.0094
742.297	0.0009
742.614	-0.0106
742.93	-0.0246
743.246	-0.0212
743.563	-0.0079
743.879	-0.0035
744.195	-0.0002
744.511	-0.004
744.827	-0.0028
745.143	0.003
745.459	0.0027
745.775	-0.0012
746.091	-0.0071
746.406	-0.0063
746.722	-0.0036
747.038	-0.0059
747.353	-0.0042
747.669	0.0024
747.984	0.0024
748.3	0.0061
748.615	0.0002
748.93	0.005
749.246	-0.0056
749.561	-0.0066
749.876	-0.0072
750.191	-0.0019
750.506	-0.0024
750.821	-0.0039
751.136	-0.0011
751.451	0.0033
751.766	0.0005
752.08	-0.003
752.395	-0.0043
752.71	-0.0008
753.024	-0.0003
753.339	0
753.653	0.0001
753.968	0.0023
754.282	0.009
754.596	0.0065
754.911	0.0032
755.225	0.0016
755.539	0.0009
755.853	0.0009
756.167	-0.0035
756.481	-0.0011
756.795	-0.0088
757.109	-0.01
757.423	-0.0097
757.736	-0.0032
758.05	-0.0053
758.364	-0.0014
758.677	0.0011
758.991	0.0004
759.304	-0.0035
759.618	-0.001
759.931	-0.0002
760.244	0.0072
760.558	0.0016
760.871	-0.0016
761.184	-0.019
761.497	-0.0218
761.81	-0.0167
762.123	-0.0032
762.436	0.0008
762.749	-0.0028
763.062	-0.0015
763.374	0.0063
763.687	0.0028
764	-0.0028
764.312	-0.0181
764.625	-0.0143
764.937	-0.017
765.25	-0.007
765.562	-0.0002
765.874	0
766.186	-0.003
766.499	-0.0114
766.811	-0.0083
767.123	0.0026
767.435	0.0062
767.747	0.0051
768.059	-0.0072
768.37	-0.011
768.682	-0.0172
768.994	-0.0206
769.306	-0.0188
769.617	-0.0138
769.929	-0.0084
770.24	-0.0073
770.552	0.0001
770.863	0.0055
771.174	0.002
771.486	-0.0035
771.797	-0.0101
772.108	-0.0154
772.419	-0.0236
772.73	-0.0196
773.041	-0.0104
773.352	-0.0029
773.663	-0.0056
773.974	-0.0063
774.285	-0.01
774.595	-0.0075
774.906	-0.0045
775.217	0.004
775.527	0.0008
775.838	-0.0016
776.148	-0.002
776.458	-0.0004
776.769	-0.0027
777.079	-0.0063
777.389	-0.0051
777.699	-0.0011
778.009	-0.0025
778.319	-0.0023
778.629	-0.0078
778.939	-0.0071
779.249	-0.0077
779.559	-0.0067
779.869	-0.0044
780.178	-0.0052
780.488	-0.0074
780.798	-0.0081
781.107	-0.0065
781.417	0.0018
781.726	-0.0018
782.035	-0.0009
782.345	-0.0078
782.654	-0.0025
782.963	-0.0032
783.272	-0.0003
783.581	-0.0008
783.89	0.0035
784.199	-0.0023
784.508	-0.0075
784.817	-0.0219
785.126	-0.0218
785.434	-0.0205
785.743	-0.0147
786.052	-0.007
786.36	-0.0075
786.669	-0.0059
786.977	-0.0114
787.285	-0.0075
787.594	-0.003
787.902	0.0002
788.21	-0.0042
788.518	-0.0021
788.826	-0.0029
789.135	-0.0003
789.442	-0.0056
789.75	-0.0008
790.058	0.0026
790.366	0.0024
790.674	-0.002
790.981	-0.0025
791.289	-0.0006
791.597	-0.0051
791.904	-0.0097
792.212	-0.0081
792.519	-0.0043
792.826	0.0047
793.134	0.0014
793.441	0.0063
793.748	0.0028
794.055	0.0047
794.362	0.0042
794.669	-0.0063
794.976	-0.0066
795.283	-0.0183
795.59	-0.0114
795.897	-0.0126
796.203	-0.0096
796.51	0.0077
796.817	0.0128
797.123	0.0054
797.43	-0.0142
797.736	-0.0213
798.042	-0.0197
798.349	-0.0104
798.655	-0.0178
798.961	-0.0104
799.267	-0.0143
799.573	-0.0081
799.879	-0.0076
800.185	-0.0014
800.491	-0.0019
800.797	-0.005
801.103	-0.0068
801.408	-0.0032
801.714	0.0069
802.02	-0
802.325	0.002
802.631	-0.0097
802.936	-0.0002
803.242	-0.0047
803.547	-0.004
803.852	-0.0083
804.157	-0.0132
804.462	-0.0139
804.768	-0.0191
805.073	-0.0113
805.378	-0.0055
805.682	-0.0024
805.987	-0.003
806.292	-0.0022
806.597	-0.003
806.902	-0.0003
807.206	-0.0061
807.511	-0.0061
807.815	-0.0119
808.12	-0.0036
808.424	-0.0003
808.728	0.0079
809.033	0.0069
809.337	-0.0033
809.641	-0.0148
809.945	-0.018
810.249	-0.0072
810.553	-0.0007
810.857	0.0021
811.161	-0.0051
811.465	-0.0069
811.768	-0.0144
812.072	-0.008
812.376	-0.0048
812.679	0.0046
812.983	0.002
813.286	-0.0014
813.59	-0.0033
813.893	0.0017
814.196	-0.0026
814.499	-0.0079
814.803	-0.0156
815.106	-0.0139
815.409	-0.0127
815.712	-0.0126
816.015	-0.0077
816.318	0.0015
816.62	0.0056
816.923	-0.0051
817.226	-0.0159
817.528	-0.019
817.831	-0.0099
818.133	-0.0094
818.436	-0.0055
818.738	-0.0115
819.041	-0.0087
819.343	-0.0131
819.645	0.0009
819.947	0.0057
820.249	0.0081
820.551	-0.0004
820.853	-0.0065
821.155	-0.0065
821.457	-0.0031
821.759	-0.0052
822.061	-0.0069
822.362	-0.0081
822.664	-0.003
822.966	0.0063
823.267	0.0028
823.569	0.001
823.87	-0.0197
824.171	-0.0214
824.473	-0.0245
824.774	-0.012
825.075	-0.003
825.376	0.0024
825.677	0.0032
825.978	0.0014
826.279	-0.0057
826.58	-0.0094
826.881	-0.011
827.181	-0.0096
827.482	-0.0107
827.783	-0.0158
828.083	-0.0083
828.384	-0.0049
828.684	-0.0107
828.985	-0.0092
829.285	-0.0009
829.585	0.0059
829.885	0.0039
830.185	0.0018
830.486	0.0011
830.786	-0.0014
831.086	-0.0106
831.385	-0.0096
831.685	-0.0129
831.985	-0.0107
832.285	-0.02
832.585	-0.0171
832.884	-0.0213
833.184	-0.0254
833.483	-0.0274
833.783	-0.0255
834.082	-0.0051
834.381	-0.0039
834.681	-0.0015
834.98	-0.0105
835.279	-0.016
835.578	-0.0033
835.877	-0.0073
836.176	-0.0047
836.475	-0.0155
836.774	-0.0061
837.072	-0.0068
837.371	0.0036
837.67	-0.0048
837.968	-0.0035
838.267	-0.0106
838.565	-0.0094
838.864	-0.0151
839.162	-0.0257
839.46	-0.0209
839.759	-0.019
840.057	-0.0119
840.355	-0.0031
840.653	0.0023
840.951	0.0079
841.249	-0.0099
841.547	-0.0175
841.845	-0.0232
842.142	-0.0051
842.44	0.0038
842.738	0.0045
843.035	-0.0026
843.333	-0.0083
843.63	-0.0141
843.928	-0.0145
844.225	-0.0116
844.522	-0.0079
844.82	-0.0168
845.117	-0.0186
845.414	-0.0062
845.711	-0.008
846.008	-0.0138
846.305	-0.0217
846.602	-0.0143
846.898	-0.0117
847.195	-0.0132
847.492	-0.0013
847.788	0.013
848.085	0.0041
848.382	-0.0066
848.678	-0.0104
848.974	0.0007
849.271	0.0049
849.567	-0.0032
849.863	-0.0061
850.159	-0.0186
850.455	-0.0156
850.751	-0.0177
851.047	-0.0093
851.343	-0.0165
851.639	-0.0135
851.935	-0.0158
852.23	-0.0053
852.526	-0.0144
852.822	-0.0096
853.117	-0.0025
853.413	0.0054
853.708	0.0051
854.003	-0.0083
854.299	-0.0184
854.594	-0.0147
854.889	-0.0112
855.184	-0.0021
855.479	-0.0107
855.774	-0.0127
856.069	-0.0089
856.364	-0.0003
856.659	0.0111
856.954	0.0173
857.248	-0.0017
857.543	-0.0079
857.837	-0.0289
858.132	-0.0075
858.426	-0.0131
858.721	0.0032
859.015	0.0011
859.309	0.015
859.604	0.0067
859.898	0
860.192	-0.0084
860.486	-0.0051
860.78	-0.0139
861.074	-0.0269
861.367	-0.0447
861.661	-0.0223
861.955	-0.0083
862.248	0.0054
862.542	-0.0168
862.836	-0.0314
863.129	-0.0266
863.422	-0.0269
863.716	-0.0171
864.009	-0.0253
864.302	-0.0097
864.595	-0.0176
864.889	-0.006
865.182	-0.0054
865.475	0.0113
865.767	-0.0033
866.06	-0.008
866.353	-0.0285
866.646	-0.006
866.938	-0.0095
867.231	-0.0167
867.524	-0.0148
867.816	-0.0113
868.109	0.0113
868.401	0.0013
868.693	0.0237
868.985	0.0161
869.278	0.0183
869.57	-0.0025
869.862	-0.0001
870.154	-0.0147
870.446	0.0223
870.738	0.0294
871.029	0.0441
871.321	0.0069
871.613	0.0153
871.904	-0.0047
872.196	0.0049
872.487	-0.0487
872.779	-0.0329
873.07	-0.0401
873.362	-0.0031
873.653	-0.0005
873.944	-0.001
874.235	-0.0017
874.526	-0.0116
874.817	-0.0147
875.108	-0.0205
875.399	-0.0047
875.69	0.0089
875.981	0.0171
876.271	0.0201
876.562	0.003
876.853	0.001
877.143	0.0037
877.434	0.0149
877.724	0.035
878.014	0.0224
878.305	-0.0023
878.595	-0.0363
878.885	-0.0411
879.175	0.0107
879.465	0.0353
879.755	0.0455
880.045	0.0174
880.335	0.011
880.624	0.0025
880.914	0.0025
