Data from 53SS01LU-alt2_071717_1b_Absorbance_20-38-51-383.txt Node
Date: Tue Jul 18 20:38:51 MDT 2017
User: Tank Lab
Spectrometer: FLMS01220
Trigger mode: 0
Integration Time (sec): 1.000000E-1
Scans to average: 10
Electric dark correction enabled: true
Nonlinearity correction enabled: false
Boxcar width: 1
XAxis mode: Wavelengths
Number of Pixels in Spectrum: 2048
>>>>>Begin Spectral Data<<<<<
179.47	0.3059
179.856	0.3059
180.241	0.6358
180.626	-0
181.011	-0
181.396	1.0521
181.781	0.4259
182.166	-0
182.551	0.0461
182.936	0.2194
183.321	-0.0599
183.706	0.6605
184.091	0.3794
184.476	0.3041
184.86	-0.0588
185.245	0.0377
185.63	0.0724
186.015	-0
186.399	-0.8022
186.784	0.9203
187.169	0.6676
187.553	0.2163
187.938	0.3714
188.322	0.1679
188.707	0.1153
189.091	0.0623
189.475	0.0559
189.86	0.0592
190.244	0.1228
190.629	0.1497
191.013	0.2018
191.397	0.2183
191.781	0.2698
192.165	0.3216
192.55	0.3764
192.934	0.4334
193.318	0.4445
193.702	0.4892
194.086	0.5103
194.47	0.5456
194.854	0.5486
195.238	0.5316
195.622	0.5372
196.006	0.5213
196.389	0.5196
196.773	0.4949
197.157	0.4787
197.541	0.4535
197.924	0.4278
198.308	0.3978
198.692	0.3673
199.075	0.3449
199.459	0.3244
199.843	0.3098
200.226	0.2925
200.61	0.2743
200.993	0.2536
201.376	0.2355
201.76	0.2186
202.143	0.2106
202.527	0.2042
202.91	0.1961
203.293	0.1854
203.676	0.1739
204.059	0.1667
204.443	0.1619
204.826	0.1575
205.209	0.1471
205.592	0.1399
205.975	0.1325
206.358	0.1316
206.741	0.1273
207.124	0.1253
207.507	0.1226
207.89	0.1202
208.273	0.1171
208.655	0.113
209.038	0.113
209.421	0.1128
209.804	0.1135
210.186	0.1114
210.569	0.1104
210.951	0.1095
211.334	0.106
211.717	0.1048
212.099	0.1043
212.482	0.1034
212.864	0.1018
213.246	0.0972
213.629	0.0961
214.011	0.0946
214.393	0.0965
214.776	0.0964
215.158	0.0967
215.54	0.0947
215.922	0.0945
216.305	0.0956
216.687	0.0937
217.069	0.0936
217.451	0.0915
217.833	0.0925
218.215	0.0919
218.597	0.0902
218.979	0.0902
219.361	0.0905
219.742	0.0892
220.124	0.0893
220.506	0.0875
220.888	0.0872
221.27	0.0846
221.651	0.0838
222.033	0.0827
222.415	0.0814
222.796	0.0785
223.178	0.0786
223.559	0.0777
223.941	0.078
224.322	0.0761
224.704	0.0764
225.085	0.0762
225.466	0.0771
225.848	0.0757
226.229	0.0762
226.61	0.0752
226.992	0.077
227.373	0.0742
227.754	0.0724
228.135	0.0712
228.516	0.072
228.897	0.0727
229.278	0.0716
229.659	0.0706
230.04	0.0699
230.421	0.0678
230.802	0.067
231.183	0.067
231.564	0.0695
231.944	0.0689
232.325	0.0659
232.706	0.0643
233.087	0.0639
233.467	0.0659
233.848	0.0653
234.229	0.0653
234.609	0.0639
234.99	0.063
235.37	0.0636
235.751	0.0645
236.131	0.0647
236.511	0.0632
236.892	0.062
237.272	0.0598
237.652	0.0581
238.033	0.0569
238.413	0.0587
238.793	0.0586
239.173	0.0584
239.553	0.0572
239.933	0.0593
240.313	0.0588
240.694	0.0585
241.074	0.0554
241.453	0.0556
241.833	0.0556
242.213	0.0563
242.593	0.056
242.973	0.0562
243.353	0.0563
243.732	0.0561
244.112	0.0549
244.492	0.0539
244.872	0.0537
245.251	0.0545
245.631	0.0554
246.01	0.0545
246.39	0.054
246.769	0.0538
247.149	0.0538
247.528	0.0525
247.908	0.0515
248.287	0.0526
248.666	0.0532
249.045	0.0521
249.425	0.0508
249.804	0.0495
250.183	0.0518
250.562	0.0525
250.941	0.0531
251.32	0.051
251.699	0.0506
252.078	0.05
252.457	0.0496
252.836	0.0487
253.215	0.0497
253.594	0.0508
253.973	0.051
254.352	0.0504
254.731	0.0509
255.109	0.0504
255.488	0.0502
255.867	0.0489
256.245	0.0492
256.624	0.0475
257.002	0.0483
257.381	0.0464
257.759	0.0489
258.138	0.0478
258.516	0.0505
258.895	0.05
259.273	0.0501
259.651	0.0474
260.03	0.0472
260.408	0.047
260.786	0.0472
261.164	0.0472
261.542	0.0459
261.921	0.0469
262.299	0.045
262.677	0.0451
263.055	0.0448
263.433	0.0455
263.811	0.046
264.188	0.0442
264.566	0.0439
264.944	0.0438
265.322	0.0455
265.7	0.0449
266.077	0.0449
266.455	0.0429
266.833	0.0427
267.21	0.042
267.588	0.0422
267.966	0.0412
268.343	0.0405
268.721	0.0421
269.098	0.0428
269.475	0.043
269.853	0.0419
270.23	0.0409
270.607	0.042
270.985	0.0416
271.362	0.041
271.739	0.0397
272.116	0.0386
272.494	0.0382
272.871	0.0382
273.248	0.0373
273.625	0.0376
274.002	0.0356
274.379	0.0369
274.756	0.037
275.132	0.0357
275.509	0.0359
275.886	0.0362
276.263	0.039
276.64	0.039
277.016	0.0378
277.393	0.0363
277.77	0.0345
278.146	0.0347
278.523	0.0348
278.899	0.0347
279.276	0.0343
279.652	0.0335
280.029	0.0333
280.405	0.0336
280.782	0.034
281.158	0.0337
281.534	0.0351
281.91	0.0355
282.287	0.0351
282.663	0.0339
283.039	0.0348
283.415	0.0349
283.791	0.0333
284.167	0.0305
284.543	0.0304
284.919	0.0302
285.295	0.0302
285.671	0.0299
286.047	0.0305
286.423	0.0307
286.799	0.0304
287.174	0.031
287.55	0.0299
287.926	0.0311
288.301	0.0294
288.677	0.0298
289.053	0.0284
289.428	0.0279
289.804	0.0286
290.179	0.0285
290.555	0.0287
290.93	0.0284
291.305	0.0274
291.681	0.027
292.056	0.0276
292.431	0.028
292.806	0.0295
293.182	0.0293
293.557	0.0299
293.932	0.0296
294.307	0.0277
294.682	0.027
295.057	0.0262
295.432	0.0263
295.807	0.0254
296.182	0.0251
296.557	0.0259
296.932	0.0262
297.306	0.0258
297.681	0.0253
298.056	0.0272
298.43	0.0277
298.805	0.0274
299.18	0.0262
299.554	0.025
299.929	0.0255
300.303	0.0252
300.678	0.0263
301.052	0.0261
301.427	0.0248
301.801	0.0256
302.175	0.0258
302.55	0.0257
302.924	0.0239
303.298	0.0225
303.672	0.0234
304.046	0.0229
304.421	0.0224
304.795	0.0224
305.169	0.022
305.543	0.0222
305.917	0.0214
306.291	0.0226
306.664	0.0233
307.038	0.0231
307.412	0.0211
307.786	0.0215
308.16	0.0231
308.533	0.0235
308.907	0.0239
309.281	0.0224
309.654	0.0234
310.028	0.0221
310.401	0.0224
310.775	0.0217
311.148	0.022
311.522	0.0214
311.895	0.0212
312.268	0.0197
312.642	0.0209
313.015	0.0223
313.388	0.0217
313.761	0.0204
314.135	0.0171
314.508	0.0166
314.881	0.0168
315.254	0.0194
315.627	0.0216
316	0.0211
316.373	0.0199
316.746	0.019
317.118	0.0184
317.491	0.0184
317.864	0.0184
318.237	0.0196
318.61	0.019
318.982	0.0189
319.355	0.0192
319.727	0.0186
320.1	0.0191
320.473	0.0191
320.845	0.0205
321.218	0.0217
321.59	0.0208
321.962	0.0193
322.335	0.0194
322.707	0.0184
323.079	0.0194
323.452	0.0189
323.824	0.0203
324.196	0.0208
324.568	0.0211
324.94	0.0198
325.312	0.0204
325.684	0.0186
326.056	0.0169
326.428	0.0151
326.8	0.0145
327.172	0.0168
327.544	0.0158
327.915	0.0168
328.287	0.0161
328.659	0.0179
329.031	0.0175
329.402	0.0169
329.774	0.0155
330.145	0.0159
330.517	0.0165
330.888	0.0157
331.26	0.0136
331.631	0.0131
332.003	0.0135
332.374	0.0138
332.745	0.0141
333.117	0.0151
333.488	0.0173
333.859	0.0172
334.23	0.0152
334.601	0.0146
334.972	0.0136
335.343	0.0139
335.714	0.0117
336.085	0.012
336.456	0.0139
336.827	0.0138
337.198	0.0138
337.569	0.0131
337.94	0.013
338.31	0.0136
338.681	0.0128
339.052	0.0127
339.422	0.0117
339.793	0.0132
340.164	0.0149
340.534	0.0138
340.905	0.0117
341.275	0.011
341.645	0.0121
342.016	0.0118
342.386	0.011
342.756	0.0105
343.127	0.0101
343.497	0.0095
343.867	0.0099
344.237	0.0096
344.607	0.0093
344.977	0.0099
345.347	0.0098
345.717	0.009
346.087	0.0075
346.457	0.0087
346.827	0.0094
347.197	0.0091
347.567	0.0077
347.936	0.011
348.306	0.014
348.676	0.0149
349.046	0.012
349.415	0.01
349.785	0.0105
350.154	0.0113
350.524	0.013
350.893	0.0125
351.263	0.0112
351.632	0.0069
352.001	0.0069
352.371	0.0081
352.74	0.01
353.109	0.0083
353.478	0.009
353.847	0.0097
354.217	0.0123
354.586	0.0124
354.955	0.0127
355.324	0.0113
355.693	0.0095
356.062	0.0086
356.43	0.0083
356.799	0.0085
357.168	0.0098
357.537	0.0113
357.906	0.0105
358.274	0.0085
358.643	0.0074
359.011	0.0094
359.38	0.011
359.749	0.0088
360.117	0.0055
360.486	0.0047
360.854	0.0075
361.222	0.008
361.591	0.0078
361.959	0.0063
362.327	0.0078
362.695	0.0069
363.064	0.0077
363.432	0.0051
363.8	0.0055
364.168	0.0057
364.536	0.0061
364.904	0.006
365.272	0.0053
365.64	0.0065
366.008	0.0076
366.376	0.0074
366.743	0.0083
367.111	0.0083
367.479	0.0093
367.847	0.0076
368.214	0.0068
368.582	0.0058
368.949	0.0065
369.317	0.0066
369.684	0.0088
370.052	0.012
370.419	0.0121
370.787	0.009
371.154	0.0049
371.521	0.0039
371.889	0.0039
372.256	0.0046
372.623	0.0026
372.99	0.0033
373.357	0.0039
373.724	0.0074
374.091	0.0063
374.458	0.0056
374.825	0.0019
375.192	0.004
375.559	0.0035
375.926	0.0048
376.293	0.0051
376.659	0.0042
377.026	0.0045
377.393	0.0041
377.759	0.0039
378.126	0.0055
378.492	0.0056
378.859	0.006
379.225	0.0042
379.592	0.0033
379.958	0.0036
380.325	0.0046
380.691	0.0037
381.057	0.0058
381.423	0.0055
381.79	0.0081
382.156	0.0072
382.522	0.0065
382.888	0.0019
383.254	0.0014
383.62	0.003
383.986	0.0058
384.352	0.0057
384.718	0.0068
385.084	0.0086
385.449	0.0072
385.815	0.005
386.181	0.0055
386.547	0.0068
386.912	0.0054
387.278	0.0011
387.643	0.0007
388.009	0.0036
388.374	0.0059
388.74	0.0051
389.105	0.0047
389.471	0.0027
389.836	0.0048
390.201	0.0042
390.566	0.0065
390.932	0.0048
391.297	0.0044
391.662	0.0024
392.027	0.0005
392.392	-0.0012
392.757	-0.0002
393.122	0.0024
393.487	0.0045
393.852	0.0044
394.217	0.004
394.582	0.0051
394.946	0.0071
395.311	0.0087
395.676	0.0093
396.04	0.0039
396.405	0.0015
396.77	0.0009
397.134	0.0039
397.499	0.0046
397.863	0
398.227	-0.0018
398.592	-0.0018
398.956	0.0003
399.32	0.0038
399.685	0.0039
400.049	0.0056
400.413	0.0063
400.777	0.006
401.141	0.0074
401.505	0.0063
401.869	0.0044
402.233	0.0001
402.597	-0.0016
402.961	-0.0005
403.325	0.0043
403.689	0.006
404.053	0.0071
404.416	0.003
404.78	-0.0002
405.144	-0.0017
405.507	0.0011
405.871	0.0031
406.234	0.0063
406.598	0.0032
406.961	0.0035
407.325	0.0017
407.688	0.0015
408.051	0.0027
408.415	0.0018
408.778	0.0026
409.141	0.001
409.504	0.002
409.867	0.0011
410.23	0.0006
410.593	-0.0004
410.956	0.002
411.319	0.0053
411.682	0.0053
412.045	0.0042
412.408	0.0021
412.771	0.0033
413.134	0.0052
413.496	0.0053
413.859	0.0057
414.222	0.0021
414.584	0.0015
414.947	0.0014
415.309	0.0041
415.672	0.0043
416.034	0.0055
416.396	0.006
416.759	0.0055
417.121	0.0023
417.483	0.0008
417.846	0.0024
418.208	0.0044
418.57	0.0065
418.932	0.0041
419.294	0.0045
419.656	0.0015
420.018	0.0038
420.38	0.0034
420.742	0.0039
421.104	0.0017
421.466	-0.0004
421.827	-0.0008
422.189	-0.0014
422.551	-0.001
422.912	0.0011
423.274	0.0053
423.636	0.0092
423.997	0.0093
424.359	0.0082
424.72	0.0058
425.081	0.0031
425.443	-0.0008
425.804	-0.0012
426.165	-0.0016
426.527	-0.0017
426.888	-0.0005
427.249	0.0009
427.61	0.0061
427.971	0.0029
428.332	0.0029
428.693	-0.0009
429.054	0.0008
429.415	0.0001
429.776	0.0004
430.137	0.001
430.498	0.0002
430.858	-0.0001
431.219	0.0011
431.58	0.0007
431.94	0.0032
432.301	0.0045
432.661	0.005
433.022	0.0029
433.382	0.0017
433.743	-0.0006
434.103	-0.001
434.463	-0.0074
434.824	-0.0062
435.184	-0.0039
435.544	0
435.904	0.0006
436.264	-0.0017
436.624	-0.001
436.985	0.0012
437.345	0.0031
437.704	0.0055
438.064	0.0051
438.424	0.0034
438.784	0.0022
439.144	0.0093
439.504	0.0056
439.863	0.0014
440.223	-0.008
440.583	-0.0037
440.942	0.0013
441.302	0.003
441.661	0.0023
442.021	-0.0005
442.38	-0.0012
442.739	-0.0029
443.099	-0.0038
443.458	-0.0031
443.817	-0.0012
444.176	0.0017
444.536	0.0002
444.895	0.0017
445.254	0.002
445.613	0.0039
445.972	0.0026
446.331	0.0007
446.69	-0.0021
447.049	-0.0001
447.407	0.0018
447.766	0.0048
448.125	0.0022
448.484	0.0002
448.842	0.0034
449.201	0.003
449.559	0.0025
449.918	-0.0033
450.276	-0.0027
450.635	0.0012
450.993	0.0012
451.352	0.0019
451.71	-0.0005
452.068	0.002
452.426	0.0015
452.785	0.0007
453.143	0.0002
453.501	-0
453.859	0.0006
454.217	0.0009
454.575	0.0021
454.933	0.0034
455.291	0.0039
455.649	-0.0016
456.006	-0.0026
456.364	-0.0015
456.722	0.0006
457.079	-0.0011
457.437	-0.0018
457.795	0.0017
458.152	0.0032
458.51	0.0025
458.867	0.002
459.225	0.0016
459.582	0.003
459.939	-0.0012
460.297	-0.0021
460.654	-0.0018
461.011	0.0017
461.368	0.0048
461.725	0.0037
462.082	0.0041
462.44	0.0044
462.797	0.0039
463.153	0.0038
463.51	0.0011
463.867	0.0035
464.224	0.0009
464.581	-0.0022
464.938	-0.006
465.294	-0.0025
465.651	-0.0007
466.008	0.0006
466.364	-0.0016
466.721	-0.0003
467.077	0.0005
467.434	0.0018
467.79	0.0035
468.146	0.0019
468.503	0.0075
468.859	0.0017
469.215	-0.0004
469.571	-0.008
469.927	-0.004
470.284	-0.0036
470.64	0.0012
470.996	0.004
471.352	0.0073
471.707	0.0032
472.063	-0.0001
472.419	-0.0008
472.775	-0.0022
473.131	0.0027
473.486	0.002
473.842	0.0036
474.198	0.0002
474.553	0.0025
474.909	0.004
475.264	0.0046
475.62	0.0037
475.975	0.0023
476.331	0.0027
476.686	0.0022
477.041	0.0011
477.396	0.0041
477.752	0.0064
478.107	0.0079
478.462	0.002
478.817	-0.0004
479.172	0.0021
479.527	0.0047
479.882	0.0048
480.237	0
480.591	0.001
480.946	-0.0002
481.301	0
481.656	-0.0039
482.01	-0.0013
482.365	-0.0002
482.72	0.0044
483.074	0.0033
483.429	0.0041
483.783	0.0009
484.137	0.0038
484.492	0.004
484.846	0.0049
485.2	-0.0021
485.555	-0.005
485.909	-0.0034
486.263	0.0003
486.617	0.0008
486.971	0.0003
487.325	0.0037
487.679	0.0079
488.033	0.0029
488.387	0.0075
488.741	0.0081
489.094	0.001
489.448	-0.007
489.802	-0.0042
490.156	0.006
490.509	-0.0002
490.863	-0.0083
491.216	-0.0065
491.57	-0.0007
491.923	0.0035
492.277	-0.0002
492.63	-0
492.983	-0.0013
493.337	-0.0034
493.69	-0.0019
494.043	-0.0021
494.396	-0.0011
494.749	-0.0042
495.102	-0.0054
495.455	-0.0032
495.808	-0.0032
496.161	0.0001
496.514	-0.0004
496.867	-0.0003
497.22	-0.0022
497.572	-0.0051
497.925	-0.0027
498.278	-0.0042
498.63	0.0053
498.983	0.0065
499.335	0.0071
499.688	-0.0048
500.04	-0.0085
500.393	-0.0117
500.745	-0.0059
501.097	-0.0026
501.449	-0.0003
501.802	-0.0022
502.154	-0.003
502.506	-0.0051
502.858	-0.0029
503.21	-0.0055
503.562	-0.0024
503.914	0.0013
504.266	0.0052
504.618	0.0015
504.969	-0.0007
505.321	-0.0061
505.673	-0.0044
506.025	-0.005
506.376	-0.0009
506.728	-0.0012
507.079	-0.0018
507.431	-0.0039
507.782	-0.0013
508.134	0.0007
508.485	-0.0006
508.836	-0.0047
509.188	-0.0058
509.539	-0.0022
509.89	-0.0035
510.241	-0.0081
510.592	-0.003
510.943	-0.0014
511.294	0.0001
511.645	-0.0078
511.996	-0.0088
512.347	-0.0066
512.698	-0.0025
513.049	-0.0018
513.399	-0.0048
513.75	-0.0084
514.101	-0.0052
514.451	-0.0007
514.802	0.0011
515.152	-0.0005
515.503	-0.0011
515.853	-0.0023
516.203	-0.0038
516.554	-0.006
516.904	-0.003
517.254	0
517.604	0.0006
517.955	-0.0036
518.305	-0.002
518.655	0.0002
519.005	0.0019
519.355	0.0043
519.705	0.0014
520.055	0.0013
520.404	-0.0028
520.754	-0.0009
521.104	0.0011
521.454	0.0026
521.803	0.0037
522.153	0.0006
522.502	-0.0031
522.852	-0.0079
523.201	-0.0075
523.551	-0.0052
523.9	0
524.249	0.0027
524.599	-0
524.948	-0.0012
525.297	-0.0026
525.646	-0.001
525.995	-0.0036
526.344	-0.0049
526.694	-0.0012
527.042	-0.0019
527.391	-0.0034
527.74	-0.0061
528.089	-0.005
528.438	-0.0007
528.787	-0.0014
529.135	0.0012
529.484	0.0034
529.833	0.0041
530.181	0.0011
530.53	-0.0044
530.878	-0.0065
531.227	-0.0015
531.575	0.002
531.923	-0.0005
532.271	-0.0049
532.62	-0.0056
532.968	-0.0033
533.316	-0.0033
533.664	-0.0046
534.012	-0.001
534.36	0.0015
534.708	-0.0013
535.056	-0.0043
535.404	-0.008
535.752	-0.0051
536.1	-0.005
536.447	-0.0043
536.795	-0.0025
537.143	-0.0002
537.49	0.0004
537.838	-0.0037
538.185	-0.006
538.533	-0.0061
538.88	-0.0035
539.228	-0.0047
539.575	-0.0037
539.922	-0.0057
540.269	0.0014
540.617	0.0014
540.964	0.0018
541.311	-0.003
541.658	-0.0011
542.005	0.0011
542.352	0.0019
542.699	-0.0021
543.045	-0.0069
543.392	-0.0063
543.739	-0.0059
544.086	-0.0019
544.432	-0.0051
544.779	-0.0032
545.126	-0.0047
545.472	-0.0049
545.819	-0.0051
546.165	-0.0039
546.512	-0.0014
546.858	0.0016
547.204	0.0018
547.55	0.0009
547.897	-0.0009
548.243	-0.0088
548.589	-0.005
548.935	-0.0069
549.281	0.0003
549.627	-0.0025
549.973	0.0019
550.319	0.0016
550.665	0.0032
551.01	-0.0029
551.356	-0.007
551.702	-0.0119
552.048	-0.0168
552.393	-0.0113
552.739	-0.0068
553.084	0.0026
553.43	-0.0028
553.775	-0.0072
554.12	-0.0093
554.466	-0.0004
554.811	0.0031
555.156	0.0028
555.502	0.0024
555.847	-0.0005
556.192	-0.0032
556.537	-0.0095
556.882	-0.0084
557.227	-0.013
557.572	-0.0079
557.917	0.002
558.261	0.0036
558.606	-0.002
558.951	-0.0121
559.295	-0.0128
559.64	-0.0082
559.985	-0.0078
560.329	-0.0058
560.674	-0.0091
561.018	-0.0122
561.363	-0.0102
561.707	-0.0102
562.051	-0.0053
562.395	0.0037
562.74	0.0071
563.084	0.0066
563.428	0.0028
563.772	0.003
564.116	-0.0016
564.46	-0.0052
564.804	-0.002
565.148	-0.0055
565.492	-0.0031
565.835	-0.0029
566.179	0.0063
566.523	-0.0019
566.866	-0.0087
567.21	-0.0094
567.554	-0.0031
567.897	-0.0009
568.24	-0.0077
568.584	-0.0085
568.927	-0.0067
569.271	-0.0058
569.614	-0.005
569.957	-0.0049
570.3	0.0016
570.643	0.0015
570.986	-0.0013
571.329	0.0012
571.672	0.003
572.015	0.0019
572.358	0.0003
572.701	0.0059
573.044	0.0003
573.387	-0.0007
573.729	-0.0008
574.072	0.0071
574.414	0.0076
574.757	0.0074
575.099	-0.0105
575.442	-0.018
575.784	-0.0056
576.127	0.01
576.469	0.0088
576.811	-0.0033
577.153	-0.0012
577.496	-0.0001
577.838	0.0021
578.18	-0.0136
578.522	-0.0148
578.864	-0.0203
579.206	0.0053
579.548	0.0059
579.889	-0.0064
580.231	0.0042
580.573	0.0178
580.915	0.014
581.256	-0.0123
581.598	-0.0317
581.939	-0.0354
582.281	-0.0042
582.622	-0.0053
582.964	0.0015
583.305	-0.0136
583.646	-0.001
583.988	0.0412
584.329	0.028
584.67	0.0092
585.011	-0.0237
585.352	-0.0353
585.693	-0.0198
586.034	-0.0254
586.375	-0.0189
586.716	-0.0126
587.057	-0.0026
587.398	0.0125
587.738	0.0226
588.079	0.0085
588.42	0.0016
588.76	-0.0232
589.101	-0.0188
589.441	-0.0244
589.782	-0.0107
590.122	0.0002
590.463	0.0044
590.803	-0.0071
591.143	-0.0061
591.483	-0.0158
591.823	-0.0186
592.164	-0.0224
592.504	-0.0067
592.844	-0.0011
593.184	-0.0061
593.523	-0.0188
593.863	-0.0153
594.203	-0.0084
594.543	0.0056
594.883	-0.0044
595.222	0.0027
595.562	0.0194
595.901	0.018
596.241	0.0031
596.58	-0.0197
596.92	-0.0278
597.259	-0.0317
597.599	-0.0184
597.938	0.0022
598.277	0.004
598.616	-0.0133
598.955	-0.021
599.295	-0.0158
599.634	0.0008
599.973	0.0099
600.312	0.0137
600.65	-0.0019
600.989	-0.0058
601.328	0.0006
601.667	0.0273
602.005	0.0092
602.344	-0.0017
602.683	-0.0075
603.021	0.002
603.36	-0.0089
603.698	-0.0212
604.037	-0.0231
604.375	-0.0151
604.713	-0.019
605.052	-0.0165
605.39	-0.0146
605.728	-0.011
606.066	0.0124
606.404	0.0135
606.742	0.0076
607.08	-0.0035
607.418	-0.016
607.756	-0.0051
608.094	-0.0029
608.431	0.0055
608.769	0.012
609.107	-0.0086
609.444	0.0017
609.782	-0.0106
610.12	0.0073
610.457	-0.0021
610.794	-0.0179
611.132	-0.021
611.469	-0.022
611.806	-0.0126
612.144	-0.0189
612.481	-0.0092
612.818	0.0045
613.155	-0.0046
613.492	-0.0122
613.829	-0.0162
614.166	-0.0009
614.503	-0.0007
614.84	-0.0069
615.176	-0.0076
615.513	-0.0039
615.85	0.0005
616.187	0.0042
616.523	-0.0041
616.86	-0.0074
617.196	-0.0008
617.533	0.0193
617.869	0.0117
618.205	-0.0015
618.542	-0.021
618.878	-0.0296
619.214	-0.0191
619.55	-0.0123
619.886	-0.0035
620.222	-0.0164
620.558	-0.0101
620.894	0.0046
621.23	0.0028
621.566	-0.0055
621.902	-0.0129
622.238	-0.0149
622.573	0.004
622.909	-0.002
623.244	0.0018
623.58	-0.0218
623.916	-0.0231
624.251	-0.0088
624.586	0.0143
624.922	0.0152
625.257	-0.007
625.592	-0.0206
625.927	-0.0166
626.263	-0.0127
626.598	-0.0104
626.933	-0.0066
627.268	0.0033
627.603	-0.0068
627.938	-0.019
628.272	-0.0164
628.607	-0.0145
628.942	-0.0091
629.277	-0.0134
629.611	0.0008
629.946	0.0103
630.281	0.0002
630.615	-0.0065
630.949	-0.0229
631.284	-0.0182
631.618	-0.0074
631.953	0.0076
632.287	0.0082
632.621	-0.0065
632.955	-0.0116
633.289	-0.0114
633.623	-0.008
633.957	-0.0106
634.291	-0.0128
634.625	-0.0067
634.959	-0.012
635.293	-0.0032
635.627	-0.0033
635.96	0.0016
636.294	-0.0098
636.627	-0.0126
636.961	-0.0047
637.294	0.001
637.628	-0.0026
637.961	-0.0085
638.295	-0.0092
638.628	-0.0018
638.961	0.0021
639.294	0.0033
639.628	-0.0068
639.961	-0.0171
640.294	-0.0186
640.627	-0.0108
640.96	-0.0015
641.293	0.0013
641.625	-0.0031
641.958	-0.0078
642.291	-0.0148
642.624	-0.0138
642.956	-0.0157
643.289	-0.0118
643.621	-0.0078
643.954	-0.0055
644.286	-0.0005
644.619	-0.0039
644.951	-0.0038
645.283	-0.0068
645.616	-0.0039
645.948	0.0001
646.28	0.0052
646.612	0.0011
646.944	-0.0006
647.276	-0.0083
647.608	-0.0049
647.94	-0.0051
648.272	-0.003
648.603	-0.0062
648.935	-0.0048
649.267	-0.0049
649.598	-0.002
649.93	-0.0052
650.261	-0.0008
650.593	0.0026
650.924	0.0124
651.256	0.0072
651.587	0.0027
651.918	-0.0017
652.25	-0.0033
652.581	-0.0064
652.912	-0.0115
653.243	-0.0093
653.574	-0.0039
653.905	-0.0002
654.236	-0.0018
654.567	-0.0019
654.897	-0.0017
655.228	-0.0051
655.559	-0.0027
655.89	-0
656.22	0.0009
656.551	-0.0075
656.881	-0.0119
657.212	-0.0089
657.542	-0.0014
657.872	0.005
658.203	0.0151
658.533	0.1409
658.863	0.081
659.193	0.0138
659.523	-0.0515
659.853	-0.1212
660.183	-0.068
660.513	-0.0283
660.843	-0.0098
661.173	-0.0048
661.503	-0.0054
661.833	-0.0024
662.162	-0.005
662.492	-0.0086
662.822	-0.0116
663.151	-0.0121
663.481	-0.009
663.81	-0.0065
664.139	-0.0005
664.469	-0.0001
664.798	-0.0037
665.127	-0.007
665.456	-0.0087
665.785	-0.0049
666.114	-0.0065
666.443	-0.0053
666.772	-0.0048
667.101	-0.0018
667.43	0.0038
667.759	0.0019
668.088	0.0043
668.416	-0.0066
668.745	-0.0054
669.074	-0.009
669.402	0.0019
669.731	0.0005
670.059	0.0027
670.388	-0.0027
670.716	0.0005
671.044	-0.0061
671.372	-0.0068
671.701	-0.0081
672.029	0.0031
672.357	0.003
672.685	0.0018
673.013	-0
673.341	-0.0059
673.669	-0.0083
673.996	-0.0094
674.324	0.0123
674.652	0.0095
674.98	0.0051
675.307	-0.0094
675.635	-0.0101
675.962	-0.0096
676.29	-0.0146
676.617	-0.0107
676.945	-0.0109
677.272	-0.0092
677.599	-0.0076
677.926	-0.0083
678.253	-0.0024
678.581	-0.0122
678.908	-0.008
679.235	-0.0018
679.561	0.0016
679.888	-0.0082
680.215	-0.0131
680.542	0.0051
680.869	0.0047
681.195	-0.0038
681.522	-0.0164
681.849	-0.011
682.175	0.001
682.502	0.001
682.828	-0.0035
683.154	-0.0114
683.481	-0.0131
683.807	-0.0142
684.133	0.0026
684.459	0.0026
684.785	0.0109
685.111	-0.0046
685.437	-0.0045
685.763	-0.0131
686.089	-0.0063
686.415	0.001
686.741	0.0027
687.067	0.0064
687.392	0.0027
687.718	0.0056
688.043	0.0042
688.369	0.0029
688.694	-0.0035
689.02	-0.0092
689.345	-0.0157
689.67	-0.0106
689.996	-0.0114
690.321	-0.0025
690.646	-0.0038
690.971	-0.001
691.296	-0.0045
691.621	-0.0047
691.946	-0.0026
692.271	0.0026
692.596	0.0024
692.921	-0.0084
693.245	-0.0171
693.57	-0.0084
693.895	0.0096
694.219	0.0128
694.544	0.0004
694.868	-0.0127
695.193	-0.0114
695.517	-0.0051
695.841	-0.0021
696.166	-0.0059
696.49	-0.01
696.814	-0.0122
697.138	-0.0082
697.462	0.0002
697.786	0.0046
698.11	0.0152
698.434	0.0037
698.758	-0.0087
699.081	-0.0253
699.405	-0.0173
699.729	0.0183
700.052	0.0178
700.376	0.0098
700.7	-0.0148
701.023	-0.0211
701.346	-0.0159
701.67	-0.0116
701.993	-0.0075
702.316	-0.0036
702.639	0.0016
702.963	-0.0009
703.286	-0.0053
703.609	-0.0062
703.932	-0.0049
704.255	-0.0088
704.578	-0.0039
704.9	0.0021
705.223	0.0073
705.546	0.0042
705.868	-0.0056
706.191	-0.0118
706.514	-0.0157
706.836	-0.0107
707.159	0.0008
707.481	0.0004
707.803	0
708.126	-0.008
708.448	-0.0071
708.77	-0.0001
709.092	0.0062
709.414	0.0159
709.736	0.0155
710.058	0.011
710.38	-0.0007
710.702	-0.0056
711.024	-0.0125
711.345	-0.0132
711.667	-0.0165
711.989	-0.0094
712.31	-0.0061
712.632	-0.001
712.953	-0.0024
713.275	0.0001
713.596	0.0023
713.917	-0.0062
714.239	-0.0152
714.56	-0.019
714.881	-0.0094
715.202	-0.0016
715.523	0.0108
715.844	0.0027
716.165	0.0043
716.486	-0.0096
716.807	-0.0055
717.128	-0.0069
717.448	-0.0082
717.769	-0.0082
718.09	-0.0068
718.41	-0.0102
718.731	-0.014
719.051	-0.02
719.372	-0.014
719.692	-0.0036
720.012	0.0066
720.332	0.0036
720.653	0.0047
720.973	0.0058
721.293	-0.0026
721.613	-0.0123
721.933	-0.0192
722.253	-0.0076
722.573	-0.0119
722.892	-0.0165
723.212	-0.0184
723.532	-0.0087
723.851	-0.0043
724.171	-0.0042
724.491	-0.0032
724.81	-0.0023
725.129	-0.002
725.449	-0.0027
725.768	-0.0043
726.087	-0.0028
726.407	-0.0063
726.726	-0.0069
727.045	-0.0114
727.364	-0.0015
727.683	-0.0002
728.002	0.0044
728.321	-0.0061
728.64	-0.0083
728.958	-0.0096
729.277	-0.0073
729.596	-0.0097
729.914	-0.0077
730.233	-0.0042
730.551	0.0023
730.87	-0.0028
731.188	-0.004
731.507	-0.0127
731.825	-0.0142
732.143	-0.019
732.461	-0.0077
732.779	-0.0005
733.097	0.0019
733.415	0.0071
733.733	0.0147
734.051	0.0071
734.369	-0.0011
734.687	-0.0178
735.005	-0.0182
735.322	-0.0146
735.64	-0.0034
735.957	0.0019
736.275	-0.0028
736.592	-0.0022
736.91	-0.0039
737.227	-0.0026
737.544	-0.0174
737.862	-0.0125
738.179	-0.0133
738.496	-0.0016
738.813	-0.0084
739.13	-0.0167
739.447	-0.0165
739.764	-0.005
740.081	0.0018
740.398	-0.0023
740.714	-0.0051
741.031	-0.0047
741.348	-0.0012
741.664	0.0009
741.981	0.0132
742.297	0.0031
742.614	-0.0092
742.93	-0.0244
743.246	-0.0196
743.563	-0.0078
743.879	-0.0024
744.195	-0.0004
744.511	-0.0035
744.827	-0.0061
745.143	0.0025
745.459	0.0056
745.775	0.0001
746.091	-0.0085
746.406	-0.0121
746.722	-0.0124
747.038	-0.0135
747.353	-0.0104
747.669	-0.0064
747.984	-0.0083
748.3	-0.0042
748.615	-0.0025
748.93	0.0029
749.246	-0.0082
749.561	-0.0102
749.876	-0.008
750.191	-0.0057
750.506	-0.0026
750.821	-0.0029
751.136	0.001
751.451	0.0013
751.766	-0.0054
752.08	-0.0036
752.395	-0.0002
752.71	0.0069
753.024	0.0075
753.339	0.0036
753.653	0.0001
753.968	0.0042
754.282	0.0086
754.596	0.0091
754.911	0.0014
755.225	0.0057
755.539	0.0009
755.853	-0.0003
756.167	-0.0052
756.481	-0.0033
756.795	-0.0065
757.109	-0.0075
757.423	-0.0056
757.736	-0.0008
758.05	-0.0038
758.364	-0.0011
758.677	-0.007
758.991	-0.0061
759.304	-0.0013
759.618	0.0114
759.931	0.0118
760.244	0.0165
760.558	0.0035
760.871	-0.0039
761.184	-0.0229
761.497	-0.021
761.81	-0.0133
762.123	0.0028
762.436	0.0083
762.749	0.0032
763.062	-0.0018
763.374	0.0037
763.687	0.0001
764	-0.0006
764.312	-0.0162
764.625	-0.0109
764.937	-0.0155
765.25	-0.0062
765.562	0.0018
765.874	0.0012
766.186	0.0042
766.499	-0.0062
766.811	-0.0029
767.123	0.0062
767.435	0.009
767.747	0.0072
768.059	-0.0113
768.37	-0.0129
768.682	-0.0185
768.994	-0.0167
769.306	-0.0193
769.617	-0.0099
769.929	-0.0078
770.24	-0.005
770.552	-0.0013
770.863	0.001
771.174	-0.001
771.486	-0.0067
771.797	-0.0098
772.108	-0.0141
772.419	-0.0169
772.73	-0.0124
773.041	-0.001
773.352	0.0038
773.663	-0.0012
773.974	-0.0023
774.285	-0.0097
774.595	-0.0104
774.906	-0.0139
775.217	-0.0056
775.527	-0.0052
775.838	-0.0073
776.148	-0.0107
776.458	-0.0059
776.769	-0.0042
777.079	-0.0052
777.389	-0.0007
777.699	-0.0013
778.009	-0.0028
778.319	-0.0065
778.629	-0.0121
778.939	-0.0088
779.249	-0.0109
779.559	-0.0035
779.869	-0.0096
780.178	-0.0089
780.488	-0.0133
780.798	-0.0095
781.107	-0.0086
781.417	-0.0021
781.726	-0.0011
782.035	0.0037
782.345	-0.0006
782.654	0.0028
782.963	-0.0047
783.272	-0.0044
783.581	-0.0028
783.89	0.0057
784.199	0.0034
784.508	-0.0078
784.817	-0.019
785.126	-0.0158
785.434	-0.0077
785.743	-0.0101
786.052	-0.008
786.36	-0.0116
786.669	-0.0046
786.977	-0.0087
787.285	-0.0074
787.594	-0.006
787.902	-0.0025
788.21	-0.0011
788.518	0.0013
788.826	-0.0006
789.135	-0.0029
789.442	-0.0097
789.75	-0.0157
790.058	-0.0115
790.366	-0.0088
790.674	-0.0031
790.981	-0.0021
791.289	0.0021
791.597	0.0004
791.904	-0.0028
792.212	-0.0102
792.519	-0.0114
792.826	-0.0055
793.134	-0.0009
793.441	-0.0001
793.748	-0.004
794.055	-0.0013
794.362	0.0067
794.669	-0.0005
794.976	-0.001
795.283	-0.0141
795.59	-0.0061
795.897	-0.0098
796.203	-0.0061
796.51	0.0069
796.817	0.0164
797.123	0.0089
797.43	-0.0073
797.736	-0.0148
798.042	-0.0151
798.349	-0.0138
798.655	-0.0211
798.961	-0.01
799.267	-0.0093
799.573	-0.0049
799.879	-0.0055
800.185	0
800.491	-0.0032
800.797	-0.0099
801.103	-0.018
801.408	-0.017
801.714	-0.0123
802.02	-0.0148
802.325	-0.0108
802.631	-0.0141
802.936	-0.0053
803.242	-0.0095
803.547	-0.0083
803.852	-0.0087
804.157	-0.0065
804.462	-0.0056
804.768	-0.0096
805.073	-0.0108
805.378	-0.0082
805.682	-0.0075
805.987	-0.005
806.292	-0.0058
806.597	0.0006
806.902	0.0045
807.206	0.0005
807.511	-0.0027
807.815	-0.0088
808.12	-0.0016
808.424	0.0034
808.728	0.011
809.033	0.014
809.337	0.0005
809.641	-0.0138
809.945	-0.0214
810.249	-0.0105
810.553	-0.0044
810.857	-0.0062
811.161	-0.0099
811.465	-0.0072
811.768	-0.0088
812.072	-0.013
812.376	-0.0105
812.679	0.0008
812.983	0.0025
813.286	0.0007
813.59	-0.0037
813.893	-0.0035
814.196	-0.0106
814.499	-0.0134
814.803	-0.0073
815.106	-0.0089
815.409	-0.0112
815.712	-0.0156
816.015	-0.0047
816.318	0.0041
816.62	0.0095
816.923	-0.0047
817.226	-0.0139
817.528	-0.0154
817.831	0.0031
818.133	-0.0038
818.436	-0.0097
818.738	-0.017
819.041	-0.0041
819.343	-0.0036
819.645	-0.0005
819.947	0.001
820.249	0.0034
820.551	0.0003
820.853	-0.0031
821.155	-0.0017
821.457	-0.0131
821.759	-0.0144
822.061	-0.0148
822.362	0.0021
822.664	0.0058
822.966	0.0042
823.267	-0.0014
823.569	-0.0036
823.87	-0.0157
824.171	-0.0216
824.473	-0.0273
824.774	-0.0184
825.075	-0.0163
825.376	-0.0077
825.677	-0.0045
825.978	0.0007
826.279	-0.0032
826.58	-0.0072
826.881	-0.0077
827.181	-0.0175
827.482	-0.0165
827.783	-0.0124
828.083	-0
828.384	-0.0026
828.684	-0.0114
828.985	-0.0088
829.285	-0.0009
829.585	-0.0033
829.885	0.0016
830.185	0.001
830.486	0.0075
830.786	-0.01
831.086	-0.0239
831.385	-0.0244
831.685	-0.0132
831.985	0.0038
832.285	-0.0075
832.585	-0.0146
832.884	-0.0262
833.184	-0.0199
833.483	-0.0166
833.783	-0.0125
834.082	-0.005
834.381	-0.0046
834.681	0.0048
834.98	-0.0041
835.279	-0.0076
835.578	-0.0087
835.877	-0.0178
836.176	-0.0232
836.475	-0.0323
836.774	-0.0125
837.072	0.0054
837.371	0.0154
837.67	0.0078
837.968	0.0002
838.267	0.0024
838.565	0.0039
838.864	0.0083
839.162	-0.0059
839.46	-0.0072
839.759	-0.0107
840.057	0.0043
840.355	0.0073
840.653	0.0037
840.951	-0.0099
841.249	-0.0237
841.547	-0.0274
841.845	-0.0171
842.142	-0.0017
842.44	0.0004
842.738	0.002
843.035	-0.0012
843.333	0.0011
843.63	-0.0079
843.928	0.0006
844.225	-0.008
844.522	-0.0101
844.82	-0.0227
845.117	-0.0121
845.414	-0.0027
845.711	-0.0045
846.008	-0.0138
846.305	-0.0148
846.602	0.0019
846.898	0.005
847.195	0.0024
847.492	-0.0172
847.788	-0.0122
848.085	-0.0137
848.382	-0.0041
848.678	-0.0029
848.974	-0.0044
849.271	-0.0044
849.567	-0.0091
849.863	-0.0095
850.159	0.0001
850.455	-0.0005
850.751	0.0135
851.047	0.0033
851.343	-0.0016
851.639	-0.0127
851.935	-0.0025
852.23	0.0066
852.526	-0.0069
852.822	-0.0155
853.117	-0.0128
853.413	0.0019
853.708	0.0069
854.003	0.009
854.299	-0.0063
854.594	-0.004
854.889	-0.0117
855.184	-0.014
855.479	-0.0244
855.774	-0.021
856.069	-0.0056
856.364	-0.0058
856.659	0.0039
856.954	0.0064
857.248	0.0011
857.543	-0.0149
857.837	-0.036
858.132	-0.0248
858.426	-0.0155
858.721	-0.0032
859.015	0.0026
859.309	0.0076
859.604	0.0047
859.898	-0.0034
860.192	-0.0206
860.486	-0.0239
860.78	-0.0396
861.074	-0.0323
861.367	-0.0317
861.661	-0.0103
861.955	-0.0137
862.248	-0.0053
862.542	-0.0409
862.836	-0.0347
863.129	-0.0086
863.422	0.0017
863.716	-0.0048
864.009	-0.0334
864.302	-0.0158
864.595	-0.0082
864.889	0.0061
865.182	0.0022
865.475	0.0028
865.767	-0.003
866.06	-0.0123
866.353	-0.0421
866.646	-0.0331
866.938	-0.0332
867.231	-0.0226
867.524	-0.0182
867.816	-0.0051
868.109	0.0194
868.401	-0.0055
868.693	0.0041
868.985	0.0078
869.278	0.0289
869.57	0.0342
869.862	-0
870.154	-0.0203
870.446	-0.0022
870.738	0.0001
871.029	0.0075
871.321	-0.0126
871.613	-0.0031
871.904	-0.0392
872.196	-0.0525
872.487	-0.0596
872.779	-0.0391
873.07	-0.029
873.362	-0.0288
873.653	-0.0196
873.944	-0.0131
874.235	-0.0181
874.526	-0.0018
874.817	0.0053
875.108	0.014
875.399	0.0162
875.69	0.0007
875.981	0.0047
876.271	-0.0009
876.562	-0.0056
876.853	0.0089
877.143	-0.0157
877.434	-0.0321
877.724	-0.0312
878.014	-0.0197
878.305	0.0169
878.595	0.009
878.885	-0.0136
879.175	-0.0171
879.465	-0.0326
879.755	-0.0016
880.045	-0.0135
880.335	0.0071
880.624	-0
880.914	-0
