Data from 57SS06MI_alt1_073017_1a_Absorbance_16-47-13-310.txt Node
Date: Wed Aug 02 16:47:13 MDT 2017
User: Tank Lab
Spectrometer: FLMS01220
Trigger mode: 0
Integration Time (sec): 1.000000E-1
Scans to average: 10
Electric dark correction enabled: true
Nonlinearity correction enabled: false
Boxcar width: 1
XAxis mode: Wavelengths
Number of Pixels in Spectrum: 2048
>>>>>Begin Spectral Data<<<<<
179.47	-0.0975
179.856	-0.0975
180.241	-0
180.626	0.1915
181.011	0.2123
181.396	-0
181.781	-0.9385
182.166	-0
182.551	-0
182.936	-0
183.321	-0
183.706	1.0851
184.091	-0
184.476	-1.1084
184.86	0.2398
185.245	-0.1326
185.63	-0.5673
186.015	-0
186.399	0.8928
186.784	-0.707
187.169	-0
187.553	-0
187.938	0.1157
188.322	0.0724
188.707	0.0941
189.091	0.1131
189.475	0.1165
189.86	0.1464
190.244	0.1642
190.629	0.211
191.013	0.2726
191.397	0.3143
191.781	0.3786
192.165	0.4104
192.55	0.4546
192.934	0.4713
193.318	0.518
193.702	0.553
194.086	0.6025
194.47	0.6168
194.854	0.6337
195.238	0.6517
195.622	0.6514
196.006	0.6866
196.389	0.6988
196.773	0.7114
197.157	0.699
197.541	0.6826
197.924	0.6679
198.308	0.6472
198.692	0.6447
199.075	0.6222
199.459	0.6172
199.843	0.5943
200.226	0.5837
200.61	0.5701
200.993	0.5595
201.376	0.5532
201.76	0.5337
202.143	0.5184
202.527	0.5134
202.91	0.5112
203.293	0.504
203.676	0.4939
204.059	0.4795
204.443	0.4733
204.826	0.458
205.209	0.4487
205.592	0.4395
205.975	0.44
206.358	0.435
206.741	0.4284
207.124	0.4222
207.507	0.415
207.89	0.4128
208.273	0.4063
208.655	0.4064
209.038	0.3975
209.421	0.3969
209.804	0.391
210.186	0.3963
210.569	0.3879
210.951	0.3851
211.334	0.3776
211.717	0.3735
212.099	0.3716
212.482	0.367
212.864	0.3694
213.246	0.3611
213.629	0.3604
214.011	0.353
214.393	0.3538
214.776	0.3471
215.158	0.3435
215.54	0.339
215.922	0.3368
216.305	0.3366
216.687	0.3352
217.069	0.332
217.451	0.3281
217.833	0.3241
218.215	0.3202
218.597	0.3176
218.979	0.3152
219.361	0.3137
219.742	0.3117
220.124	0.3091
220.506	0.3062
220.888	0.3001
221.27	0.2965
221.651	0.2906
222.033	0.2912
222.415	0.2891
222.796	0.2876
223.178	0.2833
223.559	0.281
223.941	0.2794
224.322	0.2764
224.704	0.2714
225.085	0.2665
225.466	0.2633
225.848	0.2616
226.229	0.2616
226.61	0.2609
226.992	0.2591
227.373	0.2554
227.754	0.25
228.135	0.2483
228.516	0.247
228.897	0.2468
229.278	0.2421
229.659	0.2394
230.04	0.2366
230.421	0.2351
230.802	0.234
231.183	0.2334
231.564	0.2326
231.944	0.2306
232.325	0.2305
232.706	0.2288
233.087	0.2268
233.467	0.2217
233.848	0.2191
234.229	0.2168
234.609	0.2146
234.99	0.2134
235.37	0.21
235.751	0.2097
236.131	0.2086
236.511	0.208
236.892	0.2084
237.272	0.2042
237.652	0.2039
238.033	0.2013
238.413	0.2024
238.793	0.202
239.173	0.2009
239.553	0.1987
239.933	0.1951
240.313	0.1946
240.694	0.1941
241.074	0.1937
241.453	0.1906
241.833	0.1908
242.213	0.1913
242.593	0.1892
242.973	0.1858
243.353	0.1837
243.732	0.185
244.112	0.1844
244.492	0.1837
244.872	0.1812
245.251	0.1818
245.631	0.1807
246.01	0.1806
246.39	0.1796
246.769	0.179
247.149	0.1783
247.528	0.1776
247.908	0.1759
248.287	0.1744
248.666	0.1729
249.045	0.172
249.425	0.1697
249.804	0.1697
250.183	0.1696
250.562	0.1722
250.941	0.1711
251.32	0.1706
251.699	0.1682
252.078	0.1679
252.457	0.1667
252.836	0.1673
253.215	0.1658
253.594	0.1677
253.973	0.1655
254.352	0.1656
254.731	0.1637
255.109	0.1646
255.488	0.1626
255.867	0.1612
256.245	0.159
256.624	0.1586
257.002	0.1562
257.381	0.1572
257.759	0.1578
258.138	0.1579
258.516	0.1562
258.895	0.154
259.273	0.1529
259.651	0.1521
260.03	0.1512
260.408	0.1542
260.786	0.1535
261.164	0.1529
261.542	0.148
261.921	0.1485
262.299	0.1491
262.677	0.1494
263.055	0.1491
263.433	0.1487
263.811	0.1484
264.188	0.1465
264.566	0.1449
264.944	0.1444
265.322	0.1433
265.7	0.1423
266.077	0.1426
266.455	0.1431
266.833	0.1414
267.21	0.1409
267.588	0.1406
267.966	0.1412
268.343	0.1403
268.721	0.1377
269.098	0.1372
269.475	0.136
269.853	0.1377
270.23	0.1351
270.607	0.1346
270.985	0.1323
271.362	0.1333
271.739	0.1321
272.116	0.1309
272.494	0.13
272.871	0.1313
273.248	0.1304
273.625	0.1298
274.002	0.1281
274.379	0.1288
274.756	0.127
275.132	0.1263
275.509	0.125
275.886	0.1259
276.263	0.1257
276.64	0.1241
277.016	0.1217
277.393	0.1196
277.77	0.1207
278.146	0.1212
278.523	0.1222
278.899	0.1196
279.276	0.1176
279.652	0.1158
280.029	0.1165
280.405	0.1172
280.782	0.1155
281.158	0.1148
281.534	0.1144
281.91	0.1146
282.287	0.1137
282.663	0.1121
283.039	0.1112
283.415	0.1101
283.791	0.1096
284.167	0.1095
284.543	0.1095
284.919	0.1079
285.295	0.105
285.671	0.1029
286.047	0.1031
286.423	0.1055
286.799	0.1057
287.174	0.1067
287.55	0.1039
287.926	0.1035
288.301	0.1015
288.677	0.1016
289.053	0.1003
289.428	0.0995
289.804	0.0989
290.179	0.098
290.555	0.0979
290.93	0.0971
291.305	0.0963
291.681	0.096
292.056	0.0939
292.431	0.0943
292.806	0.0933
293.182	0.094
293.557	0.0932
293.932	0.0926
294.307	0.0914
294.682	0.09
295.057	0.0889
295.432	0.0904
295.807	0.0893
296.182	0.0887
296.557	0.0857
296.932	0.0856
297.306	0.086
297.681	0.0862
298.056	0.0863
298.43	0.0859
298.805	0.086
299.18	0.0843
299.554	0.0828
299.929	0.0815
300.303	0.0828
300.678	0.082
301.052	0.0826
301.427	0.0807
301.801	0.0813
302.175	0.0814
302.55	0.081
302.924	0.0804
303.298	0.0791
303.672	0.0788
304.046	0.077
304.421	0.0757
304.795	0.0769
305.169	0.0786
305.543	0.0789
305.917	0.078
306.291	0.0756
306.664	0.0743
307.038	0.0735
307.412	0.0727
307.786	0.0733
308.16	0.0719
308.533	0.07
308.907	0.0702
309.281	0.0691
309.654	0.0713
310.028	0.0695
310.401	0.0708
310.775	0.0709
311.148	0.0703
311.522	0.0689
311.895	0.0685
312.268	0.067
312.642	0.0661
313.015	0.0643
313.388	0.0665
313.761	0.0664
314.135	0.0656
314.508	0.0645
314.881	0.0641
315.254	0.0653
315.627	0.065
316	0.0629
316.373	0.0626
316.746	0.0603
317.118	0.0605
317.491	0.0589
317.864	0.0615
318.237	0.063
318.61	0.0607
318.982	0.0597
319.355	0.0581
319.727	0.0609
320.1	0.0598
320.473	0.0599
320.845	0.0602
321.218	0.061
321.59	0.0608
321.962	0.0584
322.335	0.0556
322.707	0.0541
323.079	0.0543
323.452	0.0549
323.824	0.0539
324.196	0.0523
324.568	0.0511
324.94	0.0536
325.312	0.0544
325.684	0.0547
326.056	0.0503
326.428	0.0501
326.8	0.0501
327.172	0.0528
327.544	0.051
327.915	0.0505
328.287	0.0503
328.659	0.049
329.031	0.0475
329.402	0.0453
329.774	0.0459
330.145	0.0462
330.517	0.0452
330.888	0.0447
331.26	0.0448
331.631	0.0455
332.003	0.0466
332.374	0.0461
332.745	0.0467
333.117	0.0461
333.488	0.0441
333.859	0.0433
334.23	0.0428
334.601	0.0437
334.972	0.0445
335.343	0.0428
335.714	0.0429
336.085	0.0416
336.456	0.0425
336.827	0.0416
337.198	0.041
337.569	0.0397
337.94	0.0394
338.31	0.0391
338.681	0.0391
339.052	0.0405
339.422	0.0423
339.793	0.0429
340.164	0.0418
340.534	0.0405
340.905	0.0386
341.275	0.0386
341.645	0.0395
342.016	0.0387
342.386	0.037
342.756	0.0348
343.127	0.0354
343.497	0.0373
343.867	0.0372
344.237	0.0365
344.607	0.0357
344.977	0.0354
345.347	0.0359
345.717	0.0343
346.087	0.0333
346.457	0.033
346.827	0.0334
347.197	0.0349
347.567	0.0363
347.936	0.0373
348.306	0.0368
348.676	0.0363
349.046	0.0349
349.415	0.0335
349.785	0.0315
350.154	0.0306
350.524	0.0305
350.893	0.0311
351.263	0.0311
351.632	0.0301
352.001	0.0304
352.371	0.0309
352.74	0.0323
353.109	0.032
353.478	0.0308
353.847	0.0305
354.217	0.0287
354.586	0.0291
354.955	0.0287
355.324	0.0304
355.693	0.0294
356.062	0.0295
356.43	0.0286
356.799	0.0315
357.168	0.0305
357.537	0.0299
357.906	0.0276
358.274	0.028
358.643	0.0281
359.011	0.0283
359.38	0.0286
359.749	0.0275
360.117	0.0265
360.486	0.026
360.854	0.0274
361.222	0.0269
361.591	0.0275
361.959	0.0265
362.327	0.0272
362.695	0.026
363.064	0.0239
363.432	0.0242
363.8	0.0262
364.168	0.0272
364.536	0.0261
364.904	0.0237
365.272	0.0237
365.64	0.0241
366.008	0.0241
366.376	0.0248
366.743	0.0227
367.111	0.0228
367.479	0.0217
367.847	0.0219
368.214	0.0225
368.582	0.0221
368.949	0.022
369.317	0.0225
369.684	0.0221
370.052	0.0225
370.419	0.0212
370.787	0.0224
371.154	0.0218
371.521	0.0209
371.889	0.0183
372.256	0.0175
372.623	0.0146
372.99	0.0146
373.357	0.0141
373.724	0.0163
374.091	0.0194
374.458	0.0198
374.825	0.0186
375.192	0.0161
375.559	0.0169
375.926	0.0184
376.293	0.0176
376.659	0.0153
377.026	0.0145
377.393	0.0163
377.759	0.0191
378.126	0.018
378.492	0.0169
378.859	0.0153
379.225	0.0169
379.592	0.0159
379.958	0.0164
380.325	0.0151
380.691	0.0158
381.057	0.0146
381.423	0.0154
381.79	0.0146
382.156	0.0136
382.522	0.0133
382.888	0.0155
383.254	0.0176
383.62	0.0168
383.986	0.0153
384.352	0.0144
384.718	0.0157
385.084	0.0146
385.449	0.0144
385.815	0.0148
386.181	0.0145
386.547	0.0145
386.912	0.011
387.278	0.0138
387.643	0.0158
388.009	0.0178
388.374	0.0145
388.74	0.0132
389.105	0.0123
389.471	0.0141
389.836	0.0135
390.201	0.0137
390.566	0.0142
390.932	0.016
391.297	0.0156
391.662	0.0137
392.027	0.0124
392.392	0.0121
392.757	0.0122
393.122	0.0125
393.487	0.0138
393.852	0.0143
394.217	0.0134
394.582	0.0129
394.946	0.0129
395.311	0.014
395.676	0.0153
396.04	0.0129
396.405	0.0111
396.77	0.0083
397.134	0.0102
397.499	0.0106
397.863	0.0117
398.227	0.0102
398.592	0.0096
398.956	0.0081
399.32	0.0107
399.685	0.0112
400.049	0.0135
400.413	0.0121
400.777	0.0125
401.141	0.0118
401.505	0.0097
401.869	0.0091
402.233	0.0078
402.597	0.008
402.961	0.0093
403.325	0.0115
403.689	0.0153
404.053	0.0155
404.416	0.0133
404.78	0.01
405.144	0.0086
405.507	0.0086
405.871	0.0088
406.234	0.0084
406.598	0.0108
406.961	0.0123
407.325	0.0122
407.688	0.0106
408.051	0.008
408.415	0.008
408.778	0.0085
409.141	0.0106
409.504	0.011
409.867	0.0111
410.23	0.0101
410.593	0.0096
410.956	0.0088
411.319	0.0069
411.682	0.0083
412.045	0.0075
412.408	0.0079
412.771	0.0064
413.134	0.006
413.496	0.0055
413.859	0.0063
414.222	0.0078
414.584	0.0108
414.947	0.0081
415.309	0.0075
415.672	0.0055
416.034	0.0071
416.396	0.0073
416.759	0.0083
417.121	0.008
417.483	0.0072
417.846	0.0056
418.208	0.0059
418.57	0.0063
418.932	0.0063
419.294	0.0055
419.656	0.007
420.018	0.0071
420.38	0.0101
420.742	0.008
421.104	0.0113
421.466	0.0105
421.827	0.0115
422.189	0.008
422.551	0.0061
422.912	0.0058
423.274	0.0084
423.636	0.007
423.997	0.0097
424.359	0.0087
424.72	0.0095
425.081	0.0101
425.443	0.0092
425.804	0.0109
426.165	0.0061
426.527	0.0081
426.888	0.0074
427.249	0.0103
427.61	0.0101
427.971	0.0113
428.332	0.0095
428.693	0.0098
429.054	0.0077
429.415	0.0075
429.776	0.007
430.137	0.0068
430.498	0.0068
430.858	0.0041
431.219	0.0064
431.58	0.0072
431.94	0.0099
432.301	0.0102
432.661	0.008
433.022	0.0072
433.382	0.0054
433.743	0.0077
434.103	0.0076
434.463	0.0078
434.824	0.0057
435.184	0.0049
435.544	0.0026
435.904	0.0038
436.264	0.0047
436.624	0.0101
436.985	0.0093
437.345	0.009
437.704	0.005
438.064	0.0035
438.424	0.0013
438.784	0.0012
439.144	0.0037
439.504	0.0055
439.863	0.0057
440.223	0.005
440.583	0.0059
440.942	0.0062
441.302	0.008
441.661	0.0063
442.021	0.0046
442.38	0.0036
442.739	0.0053
443.099	0.0074
443.458	0.0065
443.817	0.0072
444.176	0.0071
444.536	0.0057
444.895	0.005
445.254	0.004
445.613	0.0061
445.972	0.0044
446.331	0.003
446.69	0.0014
447.049	0.0026
447.407	0.004
447.766	0.0048
448.125	0.0045
448.484	0.0042
448.842	0.0063
449.201	0.0056
449.559	0.007
449.918	0.0047
450.276	0.0049
450.635	0.003
450.993	0.0025
451.352	0.001
451.71	0.0034
452.068	0.0038
452.426	0.0063
452.785	0.0072
453.143	0.0077
453.501	0.0063
453.859	0.0029
454.217	0.0027
454.575	0.001
454.933	0.003
455.291	0.0033
455.649	0.0059
456.006	0.0062
456.364	0.0045
456.722	0.0056
457.079	0.0044
457.437	0.008
457.795	0.0058
458.152	0.007
458.51	0.0071
458.867	0.0076
459.225	0.0062
459.582	0.0034
459.939	0.0023
460.297	0.0013
460.654	0.0005
461.011	-0.0004
461.368	-0.0007
461.725	-0.0004
462.082	-0.0002
462.44	0.0012
462.797	-0.0016
463.153	-0.0004
463.51	0.0005
463.867	0.0033
464.224	0.0033
464.581	0.0044
464.938	0.0058
465.294	0.0042
465.651	0.0047
466.008	0.0035
466.364	0.0048
466.721	0.0038
467.077	0.0034
467.434	0.0064
467.79	0.0058
468.146	0.0065
468.503	0.0052
468.859	0.004
469.215	0.0027
469.571	0.001
469.927	0.0041
470.284	0.0058
470.64	0.0051
470.996	0.002
471.352	0.0037
471.707	0.0039
472.063	0.0018
472.419	0.0011
472.775	0.0017
473.131	0.0032
473.486	0.0022
473.842	0.0035
474.198	0.0042
474.553	0.0031
474.909	0.0013
475.264	0.0027
475.62	0.002
475.975	0.0048
476.331	0.0045
476.686	0.0057
477.041	0.0054
477.396	0.002
477.752	0.0034
478.107	0.0026
478.462	0.0069
478.817	0.0055
479.172	0.0037
479.527	0.0024
479.882	0.0005
480.237	0.0038
480.591	0.0032
480.946	0.004
481.301	0.003
481.656	0.0053
482.01	0.0074
482.365	0.0058
482.72	0.004
483.074	0.0055
483.429	0.0053
483.783	0.0049
484.137	0.0019
484.492	0.0027
484.846	0.0027
485.2	0.0023
485.555	0.0033
485.909	0.0053
486.263	0.0051
486.617	0.0023
486.971	0.0011
487.325	0.0034
487.679	0.0059
488.033	0.004
488.387	0.0032
488.741	0.0038
489.094	0.0029
489.448	0.0016
489.802	0.0013
490.156	0.0026
490.509	0.0026
490.863	-0.0004
491.216	0.0003
491.57	0.001
491.923	0.0036
492.277	0.0031
492.63	0.0015
492.983	0.0011
493.337	0.0008
493.69	0.0033
494.043	0.0016
494.396	0.0016
494.749	0.0004
495.102	0.0015
495.455	0.0023
495.808	0.0029
496.161	0.005
496.514	0.0061
496.867	0.0057
497.22	0.0041
497.572	0.003
497.925	0.0021
498.278	0.0008
498.63	0.0015
498.983	0.0041
499.335	0.0065
499.688	0.0046
500.04	0.0032
500.393	0.0015
500.745	0.002
501.097	0.0014
501.449	0.002
501.802	0.0012
502.154	0.0028
502.506	0.0006
502.858	0.0007
503.21	0.0003
503.562	0.0016
503.914	0.0039
504.266	0.0032
504.618	0.0011
504.969	-0.0001
505.321	0.0019
505.673	0.004
506.025	0.0011
506.376	-0.0001
506.728	-0.003
507.079	-0.0011
507.431	-0.0012
507.782	0.001
508.134	0.0026
508.485	0.0011
508.836	0.0031
509.188	0.0021
509.539	0.0048
509.89	0.0057
510.241	0.004
510.592	0.0032
510.943	0.001
511.294	0.0016
511.645	0.0008
511.996	-0.001
512.347	-0.0017
512.698	-0.004
513.049	-0.0033
513.399	0.0007
513.75	0.0002
514.101	0.002
514.451	-0.0004
514.802	-0.0007
515.152	-0.0002
515.503	-0.001
515.853	0.0012
516.203	0.0008
516.554	0.0017
516.904	0.0028
517.254	0.0013
517.604	0.002
517.955	0.001
518.305	0.0008
518.655	-0.001
519.005	-0.0004
519.355	0.0014
519.705	0.0039
520.055	0.0045
520.404	0.0041
520.754	0.0025
521.104	0.0005
521.454	0.0007
521.803	0.0016
522.153	0.0014
522.502	-0.0027
522.852	-0.0048
523.201	-0.0046
523.551	0.0004
523.9	0.0023
524.249	0.0046
524.599	0.004
524.948	0.0026
525.297	0.0013
525.646	0.0018
525.995	0.0033
526.344	0.0025
526.694	0.0006
527.042	0.0003
527.391	0.0011
527.74	0.0003
528.089	-0.0005
528.438	0.0015
528.787	0.0039
529.135	0.0052
529.484	0.0006
529.833	0.0009
530.181	0.0005
530.53	0.0017
530.878	0.0005
531.227	0.0013
531.575	0.0017
531.923	0.0003
532.271	-0.0024
532.62	-0.003
532.968	0.0012
533.316	0.0038
533.664	0.0062
534.012	0.0022
534.36	0.0008
534.708	0.0004
535.056	0.0017
535.404	0.0019
535.752	0.0006
536.1	-0.0011
536.447	-0.0029
536.795	-0.0026
537.143	-0.0022
537.49	-0.0015
537.838	-0.0032
538.185	-0.0043
538.533	-0.0042
538.88	-0.0035
539.228	-0.0024
539.575	-0.0024
539.922	-0.0005
540.269	0
540.617	0.0022
540.964	-0.0014
541.311	-0.001
541.658	-0.0042
542.005	-0.0007
542.352	-0.002
542.699	0.0005
543.045	-0.0003
543.392	0.0009
543.739	0.0007
544.086	-0.0017
544.432	-0.0027
544.779	-0.0029
545.126	-0.0024
545.472	-0.0024
545.819	-0.0045
546.165	-0.0025
546.512	0.0003
546.858	0.0049
547.204	0.0037
547.55	0.0021
547.897	0.0013
548.243	0.0027
548.589	0.0033
548.935	0.0001
549.281	0.0011
549.627	0.0018
549.973	0.0021
550.319	-0.0007
550.665	-0.0023
551.01	-0.0025
551.356	-0.0001
551.702	0
552.048	0.0009
552.393	0.0018
552.739	0.002
553.084	0.0001
553.43	-0.0044
553.775	-0.005
554.12	-0.001
554.466	0.0003
554.811	0.0029
555.156	-0.0004
555.502	-0.0027
555.847	-0.0039
556.192	-0.0047
556.537	-0.0025
556.882	-0.0049
557.227	-0.0046
557.572	-0.005
557.917	-0.0019
558.261	0.0004
558.606	-0.0015
558.951	-0.0029
559.295	-0.0049
559.64	-0.0018
559.985	-0.0021
560.329	-0.0037
560.674	-0.0043
561.018	-0.0026
561.363	-0.0034
561.707	-0.0078
562.051	-0.0112
562.395	-0.0065
562.74	-0.0053
563.084	-0.0049
563.428	-0.006
563.772	-0.0018
564.116	-0.0012
564.46	-0.0016
564.804	-0.0011
565.148	-0.0011
565.492	0.0004
565.835	-0.0008
566.179	0.0014
566.523	0.0017
566.866	0.0024
567.21	0.0007
567.554	-0.0009
567.897	-0.0014
568.24	-0.0029
568.584	-0.0046
568.927	-0.0064
569.271	-0.0066
569.614	-0.0051
569.957	-0.0031
570.3	-0.0021
570.643	-0.0021
570.986	-0.0033
571.329	-0.0002
571.672	0
572.015	-0.0013
572.358	-0.0017
572.701	0
573.044	0.0003
573.387	-0.0026
573.729	-0
574.072	0.0019
574.414	0.0021
574.757	-0.001
575.099	-0.005
575.442	-0.0075
575.784	-0.0057
576.127	-0.001
576.469	0.0019
576.811	-0.0015
577.153	-0.0012
577.496	-0.0007
577.838	0.0024
578.18	0.0012
578.522	-0.0004
578.864	-0.0044
579.206	-0.0032
579.548	-0.0006
579.889	0.0015
580.231	0.0012
580.573	0.0021
580.915	0.0004
581.256	-0.0045
581.598	-0.0058
581.939	-0.0071
582.281	-0.0003
582.622	-0.001
582.964	-0.0012
583.305	-0.0027
583.646	-0.004
583.988	0.0023
584.329	0.0028
584.67	-0.0016
585.011	-0.0059
585.352	-0.0092
585.693	-0.0062
586.034	-0.0065
586.375	-0.0083
586.716	-0.0048
587.057	-0.0043
587.398	-0.0032
587.738	-0.0037
588.079	-0.0065
588.42	-0.0049
588.76	-0.0061
589.101	-0.0034
589.441	-0.0048
589.782	-0.0043
590.122	-0.0008
590.463	0.0014
590.803	-0
591.143	-0.002
591.483	-0.0022
591.823	-0.0018
592.164	-0.0028
592.504	-0.0013
592.844	-0.0024
593.184	-0.0033
593.523	-0.0054
593.863	-0.0039
594.203	-0.0012
594.543	0.0013
594.883	-0.0015
595.222	-0.0031
595.562	-0.0008
595.901	-0.0005
596.241	-0.003
596.58	-0.0057
596.92	-0.0055
597.259	-0.0045
597.599	-0.0046
597.938	-0.0004
598.277	0.0016
598.616	-0.0009
598.955	-0.0035
599.295	-0.0031
599.634	-0.0031
599.973	-0.0011
600.312	-0.0043
600.65	-0.0042
600.989	-0.0064
601.328	-0.003
601.667	0.0037
602.005	0.0009
602.344	-0.0004
602.683	-0.0042
603.021	-0.0017
603.36	-0.0038
603.698	-0.0045
604.037	-0.0061
604.375	-0.005
604.713	-0.0049
605.052	-0.0057
605.39	-0.0052
605.728	-0.006
606.066	0.0003
606.404	-0.0002
606.742	-0.0023
607.08	-0.0035
607.418	-0.0053
607.756	-0.0038
608.094	-0.0033
608.431	-0.001
608.769	-0.0001
609.107	-0.0043
609.444	-0.003
609.782	-0.0054
610.12	-0.003
610.457	-0.0029
610.794	-0.0022
611.132	-0.0018
611.469	-0.002
611.806	-0.001
612.144	-0.0078
612.481	-0.009
612.818	-0.0078
613.155	-0.0036
613.492	-0.0052
613.829	-0.0058
614.166	-0.0025
614.503	0.0011
614.84	-0.0026
615.176	-0.0017
615.513	0.0001
615.85	0.0011
616.187	-0.0017
616.523	-0.0061
616.86	-0.0047
617.196	-0.0026
617.533	0.0006
617.869	-0.0017
618.205	-0.001
618.542	-0.0012
618.878	-0.0018
619.214	-0.0025
619.55	-0.0026
619.886	-0.0014
620.222	-0.0064
620.558	-0.0079
620.894	-0.0097
621.23	-0.0087
621.566	-0.0122
621.902	-0.0076
622.238	-0.0103
622.573	-0.0018
622.909	-0.0037
623.244	-0.0023
623.58	-0.0093
623.916	-0.0141
624.251	-0.0094
624.586	-0.0038
624.922	-0
625.257	-0.0042
625.592	-0.0082
625.927	-0.0073
626.263	-0.0052
626.598	-0.0045
626.933	-0.0061
627.268	-0.0042
627.603	-0.0032
627.938	-0.0042
628.272	-0.0035
628.607	-0.005
628.942	-0.0056
629.277	-0.0075
629.611	-0.0085
629.946	-0.0093
630.281	-0.0125
630.615	-0.0116
630.949	-0.0123
631.284	-0.0087
631.618	-0.0081
631.953	-0.0055
632.287	-0.0085
632.621	-0.0067
632.955	-0.009
633.289	-0.004
633.623	-0.0069
633.957	-0.0028
634.291	-0.0059
634.625	-0.0064
634.959	-0.0083
635.293	-0.0075
635.627	-0.0034
635.96	-0.0004
636.294	0.0023
636.627	0.0017
636.961	0.0008
637.294	-0.0031
637.628	-0.0074
637.961	-0.0101
638.295	-0.0101
638.628	-0.0051
638.961	-0.0048
639.294	-0.003
639.628	-0.0038
639.961	-0.0043
640.294	-0.0104
640.627	-0.0154
640.96	-0.0145
641.293	-0.0123
641.625	-0.0035
641.958	-0.0037
642.291	0.0009
642.624	-0.0051
642.956	-0.0093
643.289	-0.0084
643.621	-0.0062
643.954	-0.0037
644.286	-0.0071
644.619	-0.011
644.951	-0.0096
645.283	-0.0101
645.616	-0.0077
645.948	-0.0079
646.28	-0.0056
646.612	-0.0057
646.944	-0.0041
647.276	-0.0067
647.608	-0.0077
647.94	-0.0068
648.272	-0.0078
648.603	-0.0105
648.935	-0.0147
649.267	-0.0137
649.598	-0.0099
649.93	-0.0089
650.261	-0.006
650.593	-0.0092
650.924	-0.0086
651.256	-0.0115
651.587	-0.0064
651.918	-0.0108
652.25	-0.0103
652.581	-0.0109
652.912	-0.0001
653.243	0.0025
653.574	0.0049
653.905	-0.0005
654.236	-0.0008
654.567	-0.004
654.897	-0.0031
655.228	-0.0026
655.559	-0.0024
655.89	-0.0036
656.22	-0.0069
656.551	-0.0066
656.881	-0.0079
657.212	-0.0052
657.542	-0.0056
657.872	-0.0097
658.203	-0.0154
658.533	-0.0014
658.863	0.0129
659.193	-0.0005
659.523	-0.0059
659.853	-0.0208
660.183	-0.0125
660.513	-0.011
660.843	-0.0098
661.173	-0.008
661.503	-0.0037
661.833	-0.004
662.162	-0.0043
662.492	-0.003
662.822	-0.0013
663.151	-0.0047
663.481	-0.009
663.81	-0.0122
664.139	-0.0076
664.469	-0.0061
664.798	-0.0073
665.127	-0.0103
665.456	-0.0096
665.785	-0.0052
666.114	-0.003
666.443	-0.004
666.772	-0.0072
667.101	-0.0093
667.43	-0.0098
667.759	-0.0073
668.088	-0.0075
668.416	-0.0107
668.745	-0.0149
669.074	-0.017
669.402	-0.0148
669.731	-0.0142
670.059	-0.0086
670.388	-0.0104
670.716	-0.0065
671.044	-0.0058
671.372	0.0005
671.701	-0.0007
672.029	-0.0052
672.357	-0.0112
672.685	-0.0111
673.013	-0.0099
673.341	-0.0082
673.669	-0.0076
673.996	-0.0077
674.324	0.0012
674.652	0.0033
674.98	0.0015
675.307	-0.0059
675.635	-0.0102
675.962	-0.0073
676.29	-0.0072
676.617	-0.0102
676.945	-0.0115
677.272	-0.0167
677.599	-0.0131
677.926	-0.0095
678.253	-0.0031
678.581	-0.006
678.908	-0.0112
679.235	-0.0116
679.561	-0.0111
679.888	-0.0129
680.215	-0.0112
680.542	-0.0076
680.869	-0.0041
681.195	-0.0081
681.522	-0.0101
681.849	-0.0152
682.175	-0.0146
682.502	-0.0122
682.828	-0.0126
683.154	-0.0126
683.481	-0.0132
683.807	-0.0127
684.133	-0.0081
684.459	-0.0062
684.785	-0.0041
685.111	-0.0045
685.437	-0.0048
685.763	-0.0024
686.089	-0.0057
686.415	-0.0089
686.741	-0.0068
687.067	-0.0046
687.392	-0.0008
687.718	-0.0021
688.043	-0.0012
688.369	-0.004
688.694	-0.0054
689.02	-0.0083
689.345	-0.0061
689.67	-0.0069
689.996	-0.0021
690.321	0
690.646	0.0033
690.971	0.0012
691.296	-0.0059
691.621	-0.0071
691.946	-0.0073
692.271	-0.0044
692.596	-0.0018
692.921	-0.007
693.245	-0.008
693.57	-0.0135
693.895	-0.0123
694.219	-0.0136
694.544	-0.0105
694.868	-0.0091
695.193	-0.0075
695.517	-0.0057
695.841	-0.0056
696.166	-0.0039
696.49	-0.0093
696.814	-0.0071
697.138	-0.0104
697.462	-0.008
697.786	-0.0122
698.11	-0.0101
698.434	-0.0049
698.758	-0.0047
699.081	-0.0062
699.405	-0.0147
699.729	-0.0113
700.052	-0.0102
700.376	-0.0085
700.7	-0.0135
701.023	-0.0152
701.346	-0.0141
701.67	-0.0095
701.993	-0.0053
702.316	-0.0095
702.639	-0.0141
702.963	-0.0147
703.286	-0.0109
703.609	-0.0078
703.932	-0.01
704.255	-0.0102
704.578	-0.0105
704.9	-0.0066
705.223	-0.0058
705.546	-0.0012
705.868	-0.0014
706.191	-0.0039
706.514	-0.0085
706.836	-0.011
707.159	-0.009
707.481	-0.0075
707.803	-0.0061
708.126	-0.0036
708.448	-0.0057
708.77	-0.0088
709.092	-0.012
709.414	-0.0101
709.736	-0.006
710.058	-0.0028
710.38	-0.0011
710.702	-0.002
711.024	-0.0074
711.345	-0.0087
711.667	-0.01
711.989	-0.0082
712.31	-0.0077
712.632	-0.0079
712.953	-0.0061
713.275	-0.0086
713.596	-0.0045
713.917	-0.0075
714.239	-0.0044
714.56	-0.0097
714.881	-0.0077
715.202	-0.0129
715.523	-0.0124
715.844	-0.0115
716.165	-0.0101
716.486	-0.0086
716.807	-0.0086
717.128	-0.0067
717.448	-0.0061
717.769	-0.0051
718.09	-0.0052
718.41	-0.0086
718.731	-0.0105
719.051	-0.0129
719.372	-0.0112
719.692	-0.0108
720.012	-0.0059
720.332	-0.0077
720.653	-0.0064
720.973	-0.0098
721.293	-0.006
721.613	-0.0065
721.933	-0.0075
722.253	-0.0079
722.573	-0.0059
722.892	-0.0029
723.212	-0.006
723.532	-0.0085
723.851	-0.0092
724.171	-0.0109
724.491	-0.0107
724.81	-0.0088
725.129	-0.006
725.449	-0.005
725.768	-0.0069
726.087	-0.0028
726.407	-0.0039
726.726	-0.0006
727.045	-0.0003
727.364	-0.0005
727.683	-0.0068
728.002	-0.0124
728.321	-0.0116
728.64	-0.0082
728.958	-0.0065
729.277	-0.0044
729.596	-0.0049
729.914	-0.0057
730.233	-0.0092
730.551	-0.0101
730.87	-0.0098
731.188	-0.0082
731.507	-0.0074
731.825	-0.007
732.143	-0.0085
732.461	-0.0059
732.779	-0.0063
733.097	-0.0066
733.415	-0.0119
733.733	-0.0089
734.051	-0.0089
734.369	-0.006
734.687	-0.0062
735.005	-0.0072
735.322	-0.0091
735.64	-0.011
735.957	-0.0136
736.275	-0.0174
736.592	-0.0192
736.91	-0.0107
737.227	-0.0067
737.544	-0.0004
737.862	-0.0052
738.179	-0.0022
738.496	-0.0033
738.813	-0.0035
739.13	-0.006
739.447	-0.0097
739.764	-0.0079
740.081	-0.0088
740.398	-0.0135
740.714	-0.0141
741.031	-0.013
741.348	-0.0071
741.664	-0.0043
741.981	0.0013
742.297	-0.0001
742.614	-0.0037
742.93	-0.0078
743.246	-0.0093
743.563	-0.0116
743.879	-0.0127
744.195	-0.0128
744.511	-0.0078
744.827	-0.0098
745.143	-0.0101
745.459	-0.0105
745.775	-0.0089
746.091	-0.0067
746.406	-0.0079
746.722	-0.009
747.038	-0.0117
747.353	-0.0111
747.669	-0.0126
747.984	-0.0065
748.3	-0.0082
748.615	-0.0037
748.93	-0.0143
749.246	-0.0157
749.561	-0.016
749.876	-0.0102
750.191	-0.0017
750.506	-0.0035
750.821	-0.0011
751.136	-0.0046
751.451	-0.0053
751.766	-0.0077
752.08	-0.0055
752.395	-0.0053
752.71	-0.0062
753.024	-0.0084
753.339	-0.0042
753.653	-0.0033
753.968	-0.005
754.282	-0.0122
754.596	-0.0112
754.911	-0.0111
755.225	-0.0106
755.539	-0.0154
755.853	-0.0146
756.167	-0.0165
756.481	-0.0106
756.795	-0.0114
757.109	-0.0074
757.423	-0.009
757.736	-0.0101
758.05	-0.0117
758.364	-0.0092
758.677	-0.0013
758.991	0.003
759.304	0.0038
759.618	-0.003
759.931	-0.0073
760.244	-0.0097
760.558	-0.0084
760.871	-0.0071
761.184	-0.0128
761.497	-0.0179
761.81	-0.0187
762.123	-0.0111
762.436	-0.0084
762.749	-0.0067
763.062	-0.005
763.374	-0.0023
763.687	-0.0033
764	-0.0063
764.312	-0.0056
764.625	-0.0068
764.937	-0.0097
765.25	-0.014
765.562	-0.0121
765.874	-0.002
766.186	-0.0017
766.499	-0.0038
766.811	-0.0147
767.123	-0.0087
767.435	-0.0066
767.747	0.0002
768.059	-0.0052
768.37	-0.0048
768.682	-0.007
768.994	-0.0101
769.306	-0.0128
769.617	-0.0181
769.929	-0.0136
770.24	-0.0069
770.552	-0.0031
770.863	-0.0063
771.174	-0.0105
771.486	-0.011
771.797	-0.0098
772.108	-0.0157
772.419	-0.0183
772.73	-0.018
773.041	-0.0118
773.352	-0.0068
773.663	-0.0045
773.974	0.0005
774.285	-0.0033
774.595	-0.0054
774.906	-0.0075
775.217	-0.0061
775.527	-0.006
775.838	-0.0102
776.148	-0.0123
776.458	-0.0113
776.769	-0.0112
777.079	-0.0092
777.389	-0.0131
777.699	-0.0138
778.009	-0.0103
778.319	-0.0056
778.629	0.0011
778.939	-0.0016
779.249	-0.0015
779.559	-0.0086
779.869	-0.0079
780.178	-0.0109
780.488	-0.0127
780.798	-0.0126
781.107	-0.0112
781.417	-0.0037
781.726	-0.006
782.035	-0.0067
782.345	-0.0135
782.654	-0.0129
782.963	-0.0138
783.272	-0.0111
783.581	-0.0091
783.89	-0.0038
784.199	-0.0025
784.508	-0.0058
784.817	-0.0123
785.126	-0.0117
785.434	-0.0125
785.743	-0.0084
786.052	-0.0126
786.36	-0.0117
786.669	-0.0139
786.977	-0.0115
787.285	-0.0086
787.594	-0.0053
787.902	-0.0033
788.21	-0.0036
788.518	-0.0031
788.826	-0.0093
789.135	-0.0109
789.442	-0.0178
789.75	-0.0192
790.058	-0.0185
790.366	-0.0167
790.674	-0.0135
790.981	-0.0101
791.289	-0.0049
791.597	-0.0038
791.904	-0.0084
792.212	-0.0141
792.519	-0.0164
792.826	-0.0145
793.134	-0.012
793.441	-0.0116
793.748	-0.0084
794.055	-0.01
794.362	-0.015
794.669	-0.0199
794.976	-0.0167
795.283	-0.0052
795.59	-0.0034
795.897	-0.0053
796.203	-0.0113
796.51	-0.0077
796.817	0.0013
797.123	-0.0006
797.43	-0.0072
797.736	-0.0147
798.042	-0.0162
798.349	-0.0136
798.655	-0.0139
798.961	-0.0123
799.267	-0.01
799.573	-0.0054
799.879	-0.0064
800.185	-0.0048
800.491	-0.0072
800.797	-0.006
801.103	-0.0087
801.408	-0.0107
801.714	-0.0086
802.02	-0.0051
802.325	-0.0012
802.631	-0.0023
802.936	-0.0032
803.242	-0.0042
803.547	-0.0092
803.852	-0.0151
804.157	-0.0105
804.462	-0.0028
804.768	0.0014
805.073	-0.0085
805.378	-0.0121
805.682	-0.0098
805.987	-0.0043
806.292	-0.0043
806.597	-0.0076
806.902	-0.0075
807.206	-0.017
807.511	-0.0149
807.815	-0.0148
808.12	-0.0094
808.424	-0.0088
808.728	-0.0147
809.033	-0.0087
809.337	-0.0097
809.641	-0.0081
809.945	-0.0127
810.249	-0.017
810.553	-0.0194
810.857	-0.0218
811.161	-0.0227
811.465	-0.0197
811.768	-0.0115
812.072	-0.0099
812.376	-0.0096
812.679	-0.011
812.983	-0.0052
813.286	-0.0011
813.59	0.002
813.893	0.0059
814.196	0.0023
814.499	0.0011
814.803	-0.0094
815.106	-0.0025
815.409	0.0016
815.712	0.007
816.015	-0.0045
816.318	-0.008
816.62	-0.0073
816.923	-0.0042
817.226	-0.0056
817.528	-0.0101
817.831	-0.0107
818.133	-0.0151
818.436	-0.0154
818.738	-0.0131
819.041	-0.0165
819.343	-0.012
819.645	-0.0153
819.947	-0.0111
820.249	-0.0147
820.551	-0.0099
820.853	-0.0101
821.155	-0.011
821.457	-0.0221
821.759	-0.0216
822.061	-0.0187
822.362	-0.01
822.664	-0.0104
822.966	-0.0108
823.267	-0.0134
823.569	-0.0117
823.87	-0.0127
824.171	-0.0087
824.473	-0.0091
824.774	-0.0037
825.075	-0.0052
825.376	-0.0021
825.677	-0.002
825.978	-0.0002
826.279	-0.0053
826.58	-0.0078
826.881	-0.008
827.181	-0.0051
827.482	0.0007
827.783	-0.0028
828.083	-0.004
828.384	-0.0103
828.684	-0.0136
828.985	-0.0174
829.285	-0.0165
829.585	-0.0116
829.885	-0.0051
830.185	-0.0091
830.486	-0.0089
830.786	-0.0131
831.086	-0.0122
831.385	-0.0132
831.685	-0.0042
831.985	0.0059
832.285	0.0065
832.585	0.0037
832.884	-0.0027
833.184	-0.0112
833.483	-0.0114
833.783	-0.0107
834.082	-0.0032
834.381	-0.0073
834.681	-0.0135
834.98	-0.0197
835.279	-0.0175
835.578	-0.0157
835.877	-0.0156
836.176	-0.023
836.475	-0.0158
836.774	-0.0164
837.072	-0.0149
837.371	-0.0222
837.67	-0.0135
837.968	-0.0149
838.267	-0.0053
838.565	-0.0031
838.864	-0.0035
839.162	-0.0193
839.46	-0.0229
839.759	-0.0252
840.057	-0.0111
840.355	-0.0068
840.653	0.0036
840.951	-0.0101
841.249	-0.0143
841.547	-0.0181
841.845	-0.0173
842.142	-0.0085
842.44	-0.0086
842.738	-0.008
843.035	-0.0309
843.333	-0.0411
843.63	-0.0292
843.928	-0.0102
844.225	0.0016
844.522	0.0048
844.82	0.0004
845.117	0.0187
845.414	0.0041
845.711	0.005
846.008	-0.0139
846.305	-0.0065
846.602	-0.024
846.898	-0.0154
847.195	-0.0301
847.492	-0.0159
847.788	-0.0356
848.085	-0.033
848.382	-0.0325
848.678	-0.0248
848.974	-0.009
849.271	-0.011
849.567	0.0089
849.863	-0.0002
850.159	-0.0187
850.455	-0.0249
850.751	-0.0134
851.047	0.0111
851.343	0.0085
851.639	-0.0002
851.935	0.0036
852.23	-0.0052
852.526	-0.0021
852.822	-0.0058
853.117	-0.0023
853.413	-0.0116
853.708	-0.0252
854.003	-0.0391
854.299	-0.0325
854.594	-0.0302
854.889	0.0041
855.184	-0.0049
855.479	-0.0093
855.774	-0.0317
856.069	-0.0179
856.364	-0.0042
856.659	-0.0099
856.954	-0.0326
857.248	-0.039
857.543	-0.0272
857.837	-0.014
858.132	-0.0131
858.426	-0.0148
858.721	-0.0115
859.015	-0.0225
859.309	-0.0345
859.604	-0.0168
859.898	0.0029
860.192	0.0087
860.486	0.0015
860.78	0.007
861.074	0.014
861.367	0.007
861.661	0.0033
861.955	0.0052
862.248	0.007
862.542	0.0009
862.836	-0.0165
863.129	-0.0394
863.422	-0.0577
863.716	-0.022
864.009	-0.0091
864.302	-0.0084
864.595	-0.0184
864.889	-0.0098
865.182	-0.0039
865.475	0.0003
865.767	-0.0047
866.06	-0.0069
866.353	-0.0334
866.646	-0.0386
866.938	-0.0309
867.231	-0.0044
867.524	0.0116
867.816	-0.0002
868.109	-0.0306
868.401	-0.039
868.693	-0.025
868.985	0.0034
869.278	0.0035
869.57	0.0145
869.862	0.0173
870.154	0.0148
870.446	0.0018
870.738	-0.0157
871.029	-0.0093
871.321	-0.0164
871.613	-0.0173
871.904	-0.0308
872.196	-0.0335
872.487	-0.0469
872.779	-0.0305
873.07	-0.0235
873.362	-0.0021
873.653	-0.0051
873.944	-0.0079
874.235	0.0141
874.526	0.0301
874.817	0.0489
875.108	0.0467
875.399	0.0196
875.69	-0.0124
875.981	-0.0434
876.271	-0.044
876.562	-0.0289
876.853	0.0303
877.143	0.0394
877.434	0.0371
877.724	-0.0108
878.014	0.0051
878.305	0.0052
878.595	0.0001
878.885	-0.0056
879.175	0.0034
879.465	0.0093
879.755	0.0056
880.045	0.0082
880.335	0.0142
880.624	0.0131
880.914	0.0131
