Data from 57SS06MI_alt1_073017_1b_Absorbance_16-51-25-315.txt Node
Date: Wed Aug 02 16:51:25 MDT 2017
User: Tank Lab
Spectrometer: FLMS01220
Trigger mode: 0
Integration Time (sec): 1.000000E-1
Scans to average: 10
Electric dark correction enabled: true
Nonlinearity correction enabled: false
Boxcar width: 1
XAxis mode: Wavelengths
Number of Pixels in Spectrum: 2048
>>>>>Begin Spectral Data<<<<<
179.47	-0
179.856	-0
180.241	-1.4584
180.626	-0.7729
181.011	-0.1439
181.396	-0
181.781	-0.8888
182.166	-0
182.551	-0
182.936	-2.086
183.321	-0
183.706	0.404
184.091	-0
184.476	-0.8559
184.86	0.3012
185.245	-0
185.63	-0
186.015	-0
186.399	-0.3259
186.784	-0
187.169	-0
187.553	-0.6916
187.938	0.0178
188.322	0.0571
188.707	0.1029
189.091	0.1096
189.475	0.0877
189.86	0.0914
190.244	0.1044
190.629	0.1551
191.013	0.2047
191.397	0.2678
191.781	0.3182
192.165	0.4063
192.55	0.4403
192.934	0.4833
193.318	0.5023
193.702	0.5425
194.086	0.6
194.47	0.6112
194.854	0.627
195.238	0.6192
195.622	0.6337
196.006	0.6646
196.389	0.6716
196.773	0.683
197.157	0.6683
197.541	0.675
197.924	0.6554
198.308	0.6426
198.692	0.6331
199.075	0.6208
199.459	0.6092
199.843	0.5914
200.226	0.5795
200.61	0.5685
200.993	0.5634
201.376	0.5577
201.76	0.547
202.143	0.5316
202.527	0.5239
202.91	0.5178
203.293	0.5046
203.676	0.4921
204.059	0.4731
204.443	0.4671
204.826	0.4616
205.209	0.4541
205.592	0.446
205.975	0.4369
206.358	0.4364
206.741	0.4346
207.124	0.4362
207.507	0.4299
207.89	0.427
208.273	0.4148
208.655	0.4103
209.038	0.4005
209.421	0.397
209.804	0.3934
210.186	0.3914
210.569	0.3904
210.951	0.3868
211.334	0.3835
211.717	0.3774
212.099	0.3744
212.482	0.371
212.864	0.3706
213.246	0.3655
213.629	0.3636
214.011	0.3573
214.393	0.3532
214.776	0.3466
215.158	0.3437
215.54	0.3427
215.922	0.3433
216.305	0.3413
216.687	0.3376
217.069	0.332
217.451	0.3287
217.833	0.3259
218.215	0.3231
218.597	0.3224
218.979	0.3223
219.361	0.3181
219.742	0.3132
220.124	0.3074
220.506	0.304
220.888	0.2986
221.27	0.2965
221.651	0.296
222.033	0.297
222.415	0.2927
222.796	0.2872
223.178	0.2824
223.559	0.2786
223.941	0.278
224.322	0.2748
224.704	0.273
225.085	0.2698
225.466	0.2686
225.848	0.2677
226.229	0.2651
226.61	0.2622
226.992	0.2559
227.373	0.2534
227.754	0.2468
228.135	0.2466
228.516	0.2461
228.897	0.2479
229.278	0.245
229.659	0.241
230.04	0.238
230.421	0.2363
230.802	0.2358
231.183	0.2347
231.564	0.2333
231.944	0.2287
232.325	0.2259
232.706	0.2243
233.087	0.2222
233.467	0.2202
233.848	0.2176
234.229	0.2165
234.609	0.2146
234.99	0.2129
235.37	0.2114
235.751	0.2119
236.131	0.2114
236.511	0.2112
236.892	0.2082
237.272	0.2047
237.652	0.203
238.033	0.2016
238.413	0.201
238.793	0.1998
239.173	0.1989
239.553	0.1966
239.933	0.1944
240.313	0.1938
240.694	0.1944
241.074	0.1927
241.453	0.1912
241.833	0.1916
242.213	0.1919
242.593	0.1899
242.973	0.1875
243.353	0.1862
243.732	0.1854
244.112	0.1843
244.492	0.1823
244.872	0.1812
245.251	0.1819
245.631	0.1815
246.01	0.1815
246.39	0.179
246.769	0.1783
247.149	0.1778
247.528	0.1774
247.908	0.1755
248.287	0.1743
248.666	0.1729
249.045	0.1736
249.425	0.172
249.804	0.1726
250.183	0.172
250.562	0.1723
250.941	0.1719
251.32	0.1721
251.699	0.1709
252.078	0.1687
252.457	0.1664
252.836	0.1663
253.215	0.1648
253.594	0.1654
253.973	0.163
254.352	0.1627
254.731	0.1609
255.109	0.1612
255.488	0.1613
255.867	0.1607
256.245	0.1599
256.624	0.1592
257.002	0.1578
257.381	0.1592
257.759	0.1592
258.138	0.1591
258.516	0.1565
258.895	0.1551
259.273	0.1542
259.651	0.1534
260.03	0.1529
260.408	0.1538
260.786	0.1535
261.164	0.1525
261.542	0.1495
261.921	0.1497
262.299	0.1486
262.677	0.1499
263.055	0.1487
263.433	0.1503
263.811	0.1473
264.188	0.1463
264.566	0.1438
264.944	0.1444
265.322	0.144
265.7	0.1446
266.077	0.1441
266.455	0.1424
266.833	0.1389
267.21	0.1382
267.588	0.1388
267.966	0.138
268.343	0.1372
268.721	0.1363
269.098	0.1379
269.475	0.1378
269.853	0.1381
270.23	0.1361
270.607	0.1348
270.985	0.1329
271.362	0.134
271.739	0.1326
272.116	0.1331
272.494	0.1319
272.871	0.1323
273.248	0.1296
273.625	0.1284
274.002	0.1285
274.379	0.1276
274.756	0.1262
275.132	0.1242
275.509	0.1232
275.886	0.1247
276.263	0.1256
276.64	0.1252
277.016	0.1228
277.393	0.1209
277.77	0.121
278.146	0.1205
278.523	0.1215
278.899	0.12
279.276	0.1195
279.652	0.1173
280.029	0.1174
280.405	0.1166
280.782	0.1156
281.158	0.1162
281.534	0.1153
281.91	0.1146
282.287	0.112
282.663	0.1117
283.039	0.1106
283.415	0.11
283.791	0.1091
284.167	0.1081
284.543	0.1077
284.919	0.106
285.295	0.1065
285.671	0.1045
286.047	0.1042
286.423	0.1033
286.799	0.1046
287.174	0.1059
287.55	0.1042
287.926	0.1022
288.301	0.0994
288.677	0.1005
289.053	0.1012
289.428	0.1011
289.804	0.1004
290.179	0.099
290.555	0.0972
290.93	0.096
291.305	0.096
291.681	0.0959
292.056	0.0944
292.431	0.0945
292.806	0.095
293.182	0.0947
293.557	0.0934
293.932	0.0926
294.307	0.0929
294.682	0.0926
295.057	0.092
295.432	0.0915
295.807	0.0902
296.182	0.0884
296.557	0.0874
296.932	0.0862
297.306	0.0869
297.681	0.0855
298.056	0.0848
298.43	0.0848
298.805	0.0853
299.18	0.0856
299.554	0.0852
299.929	0.0832
300.303	0.0827
300.678	0.0816
301.052	0.0824
301.427	0.0803
301.801	0.0791
302.175	0.079
302.55	0.0789
302.924	0.079
303.298	0.0777
303.672	0.0772
304.046	0.0761
304.421	0.0755
304.795	0.0777
305.169	0.0765
305.543	0.0776
305.917	0.0754
306.291	0.0764
306.664	0.0757
307.038	0.0749
307.412	0.0741
307.786	0.0737
308.16	0.0739
308.533	0.0737
308.907	0.073
309.281	0.0715
309.654	0.0708
310.028	0.07
310.401	0.0703
310.775	0.0708
311.148	0.0696
311.522	0.0692
311.895	0.0685
312.268	0.0672
312.642	0.065
313.015	0.0631
313.388	0.0655
313.761	0.0661
314.135	0.0649
314.508	0.0631
314.881	0.0625
315.254	0.0632
315.627	0.0626
316	0.0622
316.373	0.063
316.746	0.0622
317.118	0.0617
317.491	0.0599
317.864	0.0611
318.237	0.0608
318.61	0.0604
318.982	0.0593
319.355	0.0598
319.727	0.0596
320.1	0.058
320.473	0.0583
320.845	0.0589
321.218	0.0595
321.59	0.0588
321.962	0.057
322.335	0.056
322.707	0.055
323.079	0.0547
323.452	0.0548
323.824	0.0532
324.196	0.0542
324.568	0.0524
324.94	0.0542
325.312	0.0539
325.684	0.0537
326.056	0.0515
326.428	0.05
326.8	0.0499
327.172	0.0503
327.544	0.0482
327.915	0.0487
328.287	0.0489
328.659	0.0492
329.031	0.0501
329.402	0.0488
329.774	0.0495
330.145	0.047
330.517	0.0458
330.888	0.0454
331.26	0.0464
331.631	0.0467
332.003	0.046
332.374	0.0464
332.745	0.0472
333.117	0.0472
333.488	0.0445
333.859	0.0429
334.23	0.0418
334.601	0.0418
334.972	0.0428
335.343	0.0415
335.714	0.0418
336.085	0.0397
336.456	0.041
336.827	0.0412
337.198	0.0418
337.569	0.0413
337.94	0.0381
338.31	0.0368
338.681	0.0355
339.052	0.0386
339.422	0.0407
339.793	0.0414
340.164	0.0404
340.534	0.0389
340.905	0.0391
341.275	0.0385
341.645	0.0395
342.016	0.0376
342.386	0.0379
342.756	0.0369
343.127	0.0387
343.497	0.0383
343.867	0.0367
344.237	0.0334
344.607	0.035
344.977	0.0357
345.347	0.0368
345.717	0.0334
346.087	0.0327
346.457	0.0316
346.827	0.0323
347.197	0.0316
347.567	0.033
347.936	0.0335
348.306	0.0329
348.676	0.0329
349.046	0.0316
349.415	0.0322
349.785	0.0307
350.154	0.0303
350.524	0.0309
350.893	0.0305
351.263	0.0314
351.632	0.0308
352.001	0.0326
352.371	0.0316
352.74	0.0312
353.109	0.0292
353.478	0.0289
353.847	0.0284
354.217	0.0284
354.586	0.0289
354.955	0.0282
355.324	0.0292
355.693	0.0285
356.062	0.0286
356.43	0.0272
356.799	0.0281
357.168	0.0285
357.537	0.0285
357.906	0.0282
358.274	0.0283
358.643	0.0291
359.011	0.0285
359.38	0.0291
359.749	0.0287
360.117	0.0272
360.486	0.0253
360.854	0.0244
361.222	0.0259
361.591	0.0268
361.959	0.0268
362.327	0.0273
362.695	0.0266
363.064	0.0247
363.432	0.0239
363.8	0.0241
364.168	0.0248
364.536	0.0249
364.904	0.0247
365.272	0.0237
365.64	0.0235
366.008	0.0221
366.376	0.0256
366.743	0.024
367.111	0.0231
367.479	0.0194
367.847	0.0201
368.214	0.0212
368.582	0.0217
368.949	0.0202
369.317	0.0212
369.684	0.0223
370.052	0.023
370.419	0.022
370.787	0.0213
371.154	0.0199
371.521	0.0199
371.889	0.0176
372.256	0.0163
372.623	0.0157
372.99	0.0159
373.357	0.0173
373.724	0.0176
374.091	0.0198
374.458	0.02
374.825	0.0186
375.192	0.0177
375.559	0.0172
375.926	0.018
376.293	0.0165
376.659	0.0148
377.026	0.0157
377.393	0.0158
377.759	0.0178
378.126	0.015
378.492	0.015
378.859	0.0144
379.225	0.017
379.592	0.0178
379.958	0.0197
380.325	0.0177
380.691	0.0187
381.057	0.0158
381.423	0.0155
381.79	0.0143
382.156	0.0137
382.522	0.0152
382.888	0.0159
383.254	0.0179
383.62	0.0173
383.986	0.0167
384.352	0.0155
384.718	0.0144
385.084	0.0136
385.449	0.0128
385.815	0.0125
386.181	0.0124
386.547	0.0135
386.912	0.0121
387.278	0.0127
387.643	0.0151
388.009	0.0178
388.374	0.0155
388.74	0.0138
389.105	0.0121
389.471	0.0144
389.836	0.0137
390.201	0.0149
390.566	0.0175
390.932	0.0185
391.297	0.0179
391.662	0.0146
392.027	0.0131
392.392	0.0122
392.757	0.0133
393.122	0.0127
393.487	0.0139
393.852	0.0129
394.217	0.0112
394.582	0.0107
394.946	0.0123
395.311	0.0152
395.676	0.0152
396.04	0.0132
396.405	0.0101
396.77	0.0093
397.134	0.0086
397.499	0.0119
397.863	0.0112
398.227	0.0093
398.592	0.0089
398.956	0.0084
399.32	0.0111
399.685	0.0089
400.049	0.0087
400.413	0.0089
400.777	0.0101
401.141	0.0121
401.505	0.0105
401.869	0.009
402.233	0.0088
402.597	0.0109
402.961	0.0147
403.325	0.0151
403.689	0.0153
404.053	0.013
404.416	0.0117
404.78	0.0088
405.144	0.0082
405.507	0.0077
405.871	0.0086
406.234	0.0101
406.598	0.012
406.961	0.0125
407.325	0.0118
407.688	0.0107
408.051	0.0098
408.415	0.0092
408.778	0.0086
409.141	0.0108
409.504	0.0107
409.867	0.0106
410.23	0.0088
410.593	0.0094
410.956	0.0069
411.319	0.0044
411.682	0.0041
412.045	0.0048
412.408	0.007
412.771	0.0081
413.134	0.0098
413.496	0.0095
413.859	0.0082
414.222	0.0094
414.584	0.0117
414.947	0.0105
415.309	0.0083
415.672	0.0042
416.034	0.0048
416.396	0.0057
416.759	0.0091
417.121	0.0081
417.483	0.0079
417.846	0.0055
418.208	0.0063
418.57	0.0061
418.932	0.006
419.294	0.0048
419.656	0.0052
420.018	0.0065
420.38	0.0083
420.742	0.0071
421.104	0.0081
421.466	0.0098
421.827	0.0124
422.189	0.0114
422.551	0.0088
422.912	0.0062
423.274	0.0066
423.636	0.0061
423.997	0.0088
424.359	0.0082
424.72	0.0088
425.081	0.0082
425.443	0.0074
425.804	0.0078
426.165	0.0055
426.527	0.007
426.888	0.0056
427.249	0.0076
427.61	0.0075
427.971	0.0085
428.332	0.0068
428.693	0.0055
429.054	0.0042
429.415	0.005
429.776	0.0053
430.137	0.0056
430.498	0.0039
430.858	0.0048
431.219	0.0077
431.58	0.0096
431.94	0.0099
432.301	0.0081
432.661	0.0061
433.022	0.0058
433.382	0.0034
433.743	0.0044
434.103	0.0021
434.463	0.0037
434.824	0.0032
435.184	0.0064
435.544	0.0071
435.904	0.0071
436.264	0.0047
436.624	0.0053
436.985	0.0036
437.345	0.0046
437.704	0.003
438.064	0.0054
438.424	0.0051
438.784	0.0065
439.144	0.0059
439.504	0.007
439.863	0.0067
440.223	0.0061
440.583	0.0059
440.942	0.0053
441.302	0.0063
441.661	0.0047
442.021	0.0054
442.38	0.0043
442.739	0.0053
443.099	0.0062
443.458	0.0088
443.817	0.0098
444.176	0.0086
444.536	0.0067
444.895	0.0067
445.254	0.0064
445.613	0.0071
445.972	0.0061
446.331	0.0042
446.69	0.0035
447.049	0.0029
447.407	0.0032
447.766	0.0033
448.125	0.0034
448.484	0.0034
448.842	0.0046
449.201	0.0032
449.559	0.0034
449.918	0.0008
450.276	0.0002
450.635	0.0016
450.993	0.0037
451.352	0.003
451.71	0.0044
452.068	0.0032
452.426	0.0074
452.785	0.0063
453.143	0.0057
453.501	0.0023
453.859	-0.0008
454.217	-0.0009
454.575	0.0008
454.933	0.0012
455.291	0.0029
455.649	0.0023
456.006	0.002
456.364	0.0011
456.722	0.001
457.079	0.0035
457.437	0.0053
457.795	0.0045
458.152	0.0061
458.51	0.0051
458.867	0.0046
459.225	0.002
459.582	0.0015
459.939	0.0028
460.297	0.003
460.654	-0.0002
461.011	-0.0018
461.368	-0.0034
461.725	-0.0014
462.082	0.0006
462.44	0.0022
462.797	0.0013
463.153	0.0023
463.51	0.0032
463.867	0.0047
464.224	0.0033
464.581	0.0014
464.938	0.0025
465.294	0.0017
465.651	0.0042
466.008	0.0043
466.364	0.0043
466.721	0.0063
467.077	0.0058
467.434	0.0098
467.79	0.0068
468.146	0.0042
468.503	0.0029
468.859	0.0018
469.215	0.0021
469.571	-0.0001
469.927	0.0022
470.284	0.0025
470.64	0.0027
470.996	0.0006
471.352	0.0027
471.707	0.0006
472.063	-0.0002
472.419	0.0011
472.775	0.002
473.131	0.0023
473.486	-0.0015
473.842	0.0001
474.198	0.0035
474.553	0.005
474.909	0.0071
475.264	0.0059
475.62	0.0059
475.975	0.0047
476.331	0.0026
476.686	0.0025
477.041	0.0015
477.396	0.0005
477.752	0.0015
478.107	0.0032
478.462	0.0053
478.817	0.0037
479.172	0.0001
479.527	0.001
479.882	-0.0008
480.237	0.0021
480.591	-0.0001
480.946	0.0012
481.301	0.0004
481.656	0.0027
482.01	0.0036
482.365	0.0048
482.72	0.0039
483.074	0.0038
483.429	0.0013
483.783	0.0001
484.137	-0.0001
484.492	0.001
484.846	0.0021
485.2	0.0013
485.555	0.0005
485.909	0.0012
486.263	0.0017
486.617	0.0012
486.971	0.0008
487.325	0.0032
487.679	0.0047
488.033	0.0018
488.387	-0.0006
488.741	0.0007
489.094	0.0005
489.448	0.0006
489.802	0.0006
490.156	0.0009
490.509	-0.0001
490.863	-0.0009
491.216	0.0004
491.57	0.0001
491.923	-0.0009
492.277	-0.0008
492.63	-0.0023
492.983	-0.0033
493.337	-0.0028
493.69	0.0011
494.043	0.0018
494.396	0.0006
494.749	0.0007
495.102	0.0009
495.455	0.0017
495.808	-0.0007
496.161	0.001
496.514	0.0011
496.867	0.0023
497.22	0.0013
497.572	0.0003
497.925	-0.0003
498.278	0.0008
498.63	0.0017
498.983	0.005
499.335	0.0051
499.688	0.005
500.04	0.0026
500.393	0.0022
500.745	0.0017
501.097	0.0025
501.449	0.0005
501.802	0.0006
502.154	0.0018
502.506	0.0023
502.858	0.0016
503.21	-0.0008
503.562	-0.0013
503.914	-0.0005
504.266	0.0004
504.618	-0.0016
504.969	0.0003
505.321	0.0006
505.673	0.0014
506.025	-0.0021
506.376	-0.0027
506.728	-0.0042
507.079	-0.0025
507.431	-0.0046
507.782	-0.0013
508.134	-0.0015
508.485	-0.0006
508.836	-0.0002
509.188	0.0004
509.539	0.0034
509.89	0.0042
510.241	0.0015
510.592	-0.0005
510.943	-0.0002
511.294	0.002
511.645	0.0025
511.996	0.0011
512.347	-0.0004
512.698	-0.0009
513.049	-0.0029
513.399	-0.0001
513.75	-0.0035
514.101	-0.0019
514.451	-0.0026
514.802	0.0007
515.152	-0.0003
515.503	0.0002
515.853	-0.0007
516.203	0.0012
516.554	0.0003
516.904	0.0013
517.254	-0.0003
517.604	-0.0001
517.955	0.0002
518.305	0.0005
518.655	-0.0011
519.005	-0.0021
519.355	-0.0019
519.705	-0.0001
520.055	-0.0004
520.404	-0.0029
520.754	-0.0046
521.104	-0.0021
521.454	-0.0016
521.803	-0.0006
522.153	-0.0007
522.502	-0.0019
522.852	-0.0034
523.201	-0.0047
523.551	-0.0022
523.9	-0.0028
524.249	-0.0011
524.599	-0.0011
524.948	0.0009
525.297	-0.0005
525.646	0.0028
525.995	-0.0001
526.344	0.0007
526.694	-0.0032
527.042	0.0009
527.391	-0.0008
527.74	0.0008
528.089	-0.0003
528.438	0.0031
528.787	0.003
529.135	0.0035
529.484	-0.0007
529.833	0.0011
530.181	0.0001
530.53	-0.0005
530.878	-0.0038
531.227	-0.004
531.575	-0.0037
531.923	-0.0039
532.271	-0.0026
532.62	-0.0015
532.968	0.0025
533.316	0.003
533.664	0.0033
534.012	0.0014
534.36	-0.0006
534.708	-0.0007
535.056	-0.0006
535.404	-0.0006
535.752	-0.0005
536.1	-0.0029
536.447	-0.0028
536.795	-0.0011
537.143	0.0014
537.49	0.0016
537.838	-0.0004
538.185	-0.0031
538.533	-0.0046
538.88	-0.0039
539.228	-0.005
539.575	-0.0027
539.922	-0.0012
540.269	0.0014
540.617	0.0028
540.964	-0.0013
541.311	-0.0017
541.658	-0.0054
542.005	-0.0031
542.352	-0.0046
542.699	-0.0027
543.045	-0.0034
543.392	-0.0005
543.739	-0.0015
544.086	-0.0015
544.432	-0.0021
544.779	-0.0028
545.126	-0.002
545.472	-0.002
545.819	-0.0027
546.165	-0.0017
546.512	-0.0026
546.858	-0.0005
547.204	-0.0023
547.55	-0.0015
547.897	0.0005
548.243	0.0029
548.589	0.0035
548.935	0.0011
549.281	0.0006
549.627	0.0006
549.973	0.0009
550.319	-0.0009
550.665	-0.0021
551.01	-0.0032
551.356	-0.0035
551.702	-0.0032
552.048	-0.0028
552.393	-0.0012
552.739	-0.0019
553.084	0.0007
553.43	-0.0019
553.775	-0.002
554.12	-0.0039
554.466	-0.0012
554.811	-0.0009
555.156	-0.0025
555.502	-0.0049
555.847	-0.0061
556.192	-0.0076
556.537	-0.0056
556.882	-0.0056
557.227	-0.0044
557.572	-0.0067
557.917	-0.0046
558.261	-0.0006
558.606	-0.0017
558.951	-0.0031
559.295	-0.0069
559.64	-0.0038
559.985	-0.0046
560.329	-0.0062
560.674	-0.0079
561.018	-0.0072
561.363	-0.0052
561.707	-0.0063
562.051	-0.0057
562.395	-0.0013
562.74	-0.0011
563.084	-0.002
563.428	-0.0056
563.772	-0.0006
564.116	-0.0015
564.46	-0.0006
564.804	-0.0026
565.148	-0.0037
565.492	-0.0041
565.835	-0.0043
566.179	-0.0025
566.523	-0.0014
566.866	-0.0043
567.21	-0.003
567.554	-0.0037
567.897	-0.0005
568.24	-0.0025
568.584	-0.0028
568.927	-0.0057
569.271	-0.0051
569.614	-0.0061
569.957	-0.0027
570.3	-0.0006
570.643	0.0032
570.986	0.001
571.329	-0.0005
571.672	-0.0022
572.015	-0.0029
572.358	-0.002
572.701	-0.002
573.044	-0.0004
573.387	-0.0025
573.729	-0.0026
574.072	-0.003
574.414	-0.0021
574.757	-0.0026
575.099	-0.0045
575.442	-0.0077
575.784	-0.0063
576.127	-0.0022
576.469	0.0017
576.811	-0.0018
577.153	-0.0025
577.496	-0.0023
577.838	-0.0004
578.18	-0.0026
578.522	-0.0037
578.864	-0.0053
579.206	0.0006
579.548	0.0015
579.889	0.0005
580.231	-0.0039
580.573	-0.0024
580.915	-0.0016
581.256	-0.004
581.598	-0.005
581.939	-0.005
582.281	0.001
582.622	0.0005
582.964	-0.0008
583.305	-0.001
583.646	-0.0019
583.988	0.0043
584.329	0.0044
584.67	-0.0011
585.011	-0.0044
585.352	-0.0095
585.693	-0.0055
586.034	-0.0077
586.375	-0.0094
586.716	-0.0056
587.057	-0.0045
587.398	-0.0038
587.738	-0.0033
588.079	-0.0037
588.42	-0.0017
588.76	-0.0037
589.101	-0.0028
589.441	-0.0047
589.782	-0.0046
590.122	-0.0023
590.463	-0.001
590.803	-0.0046
591.143	-0.0054
591.483	-0.0051
591.823	-0.0039
592.164	-0.0045
592.504	-0.0021
592.844	-0.0028
593.184	-0.0037
593.523	-0.0055
593.863	-0.0039
594.203	-0.0029
594.543	-0.0002
594.883	-0.0048
595.222	-0.0044
595.562	-0.0018
595.901	0.0007
596.241	-0.0023
596.58	-0.0064
596.92	-0.0078
597.259	-0.0089
597.599	-0.0076
597.938	-0.0039
598.277	-0.0001
598.616	-0.0032
598.955	-0.0039
599.295	-0.0053
599.634	-0.0026
599.973	0.0007
600.312	-0.0036
600.65	-0.0046
600.989	-0.0085
601.328	-0.0025
601.667	0.0039
602.005	0.0028
602.344	-0.0007
602.683	-0.0038
603.021	-0.0041
603.36	-0.0073
603.698	-0.0092
604.037	-0.0097
604.375	-0.0066
604.713	-0.0074
605.052	-0.0076
605.39	-0.0061
605.728	-0.0045
606.066	0.0027
606.404	0.0004
606.742	-0.0045
607.08	-0.0068
607.418	-0.0083
607.756	-0.0046
608.094	-0.0016
608.431	0.0017
608.769	0.0032
609.107	-0.0046
609.444	-0.0046
609.782	-0.0063
610.12	-0.0016
610.457	-0.0023
610.794	-0.0036
611.132	-0.0062
611.469	-0.0056
611.806	-0.0044
612.144	-0.0059
612.481	-0.0066
612.818	-0.0067
613.155	-0.0024
613.492	-0.0028
613.829	-0.0016
614.166	-0.0015
614.503	0.0006
614.84	-0.0039
615.176	-0.0034
615.513	-0.0018
615.85	0.0023
616.187	-0.001
616.523	-0.0028
616.86	-0.005
617.196	0
617.533	-0.0012
617.869	-0.0025
618.205	-0.0055
618.542	-0.0042
618.878	-0.0055
619.214	-0.0031
619.55	-0.0017
619.886	-0.002
620.222	-0.0062
620.558	-0.0089
620.894	-0.0089
621.23	-0.0098
621.566	-0.0094
621.902	-0.0086
622.238	-0.0113
622.573	-0.0091
622.909	-0.0094
623.244	-0.0068
623.58	-0.0117
623.916	-0.013
624.251	-0.01
624.586	-0.0067
624.922	-0.0021
625.257	-0.0064
625.592	-0.0084
625.927	-0.0083
626.263	-0.0058
626.598	-0.0077
626.933	-0.0092
627.268	-0.008
627.603	-0.0056
627.938	-0.0091
628.272	-0.0102
628.607	-0.0097
628.942	-0.0093
629.277	-0.0085
629.611	-0.0117
629.946	-0.0103
630.281	-0.0131
630.615	-0.0127
630.949	-0.0121
631.284	-0.0098
631.618	-0.0051
631.953	-0.004
632.287	-0.0061
632.621	-0.0105
632.955	-0.0131
633.289	-0.0101
633.623	-0.0121
633.957	-0.0092
634.291	-0.0125
634.625	-0.0076
634.959	-0.012
635.293	-0.0087
635.627	-0.011
635.96	-0.0064
636.294	-0.0059
636.627	-0.0063
636.961	-0.006
637.294	-0.0055
637.628	-0.0065
637.961	-0.0075
638.295	-0.0114
638.628	-0.007
638.961	-0.0072
639.294	-0.0069
639.628	-0.0123
639.961	-0.0142
640.294	-0.0135
640.627	-0.0114
640.96	-0.0094
641.293	-0.0105
641.625	-0.005
641.958	-0.0093
642.291	-0.0087
642.624	-0.01
642.956	-0.0103
643.289	-0.0093
643.621	-0.0099
643.954	-0.006
644.286	-0.008
644.619	-0.012
644.951	-0.0111
645.283	-0.0101
645.616	-0.0051
645.948	-0.0057
646.28	-0.0049
646.612	-0.0064
646.944	-0.0047
647.276	-0.0056
647.608	-0.0083
647.94	-0.0102
648.272	-0.011
648.603	-0.0101
648.935	-0.0119
649.267	-0.0125
649.598	-0.014
649.93	-0.0129
650.261	-0.0108
650.593	-0.0084
650.924	-0.0082
651.256	-0.0073
651.587	-0.0051
651.918	-0.0056
652.25	-0.0038
652.581	-0.0073
652.912	-0.0063
653.243	-0.0067
653.574	-0.0091
653.905	-0.0115
654.236	-0.0136
654.567	-0.0075
654.897	-0.0067
655.228	-0.0073
655.559	-0.0065
655.89	-0.0046
656.22	-0.0091
656.551	-0.0108
656.881	-0.0113
657.212	-0.0052
657.542	-0.0047
657.872	-0.0107
658.203	-0.0115
658.533	0.0009
658.863	0.0127
659.193	-0.0022
659.523	-0.008
659.853	-0.0227
660.183	-0.0157
660.513	-0.0089
660.843	-0.0087
661.173	-0.0065
661.503	-0.0113
661.833	-0.0091
662.162	-0.0094
662.492	-0.0029
662.822	-0.0056
663.151	-0.0086
663.481	-0.014
663.81	-0.0122
664.139	-0.0126
664.469	-0.0112
664.798	-0.0144
665.127	-0.0121
665.456	-0.0126
665.785	-0.007
666.114	-0.0055
666.443	-0.0014
666.772	-0.0033
667.101	-0.0029
667.43	-0.0101
667.759	-0.0094
668.088	-0.0151
668.416	-0.0128
668.745	-0.0141
669.074	-0.0135
669.402	-0.0129
669.731	-0.014
670.059	-0.0096
670.388	-0.0101
670.716	-0.008
671.044	-0.004
671.372	0.0004
671.701	0.0012
672.029	-0.0076
672.357	-0.011
672.685	-0.014
673.013	-0.0108
673.341	-0.0091
673.669	-0.0073
673.996	-0.0046
674.324	0
674.652	-0.0036
674.98	-0.008
675.307	-0.0167
675.635	-0.0149
675.962	-0.0099
676.29	-0.0064
676.617	-0.0102
676.945	-0.0151
677.272	-0.0168
677.599	-0.0135
677.926	-0.0094
678.253	-0.0086
678.581	-0.0143
678.908	-0.0193
679.235	-0.0177
679.561	-0.0129
679.888	-0.0172
680.215	-0.0175
680.542	-0.0152
680.869	-0.0091
681.195	-0.0131
681.522	-0.0113
681.849	-0.0133
682.175	-0.0132
682.502	-0.0178
682.828	-0.0176
683.154	-0.0142
683.481	-0.0088
683.807	-0.0103
684.133	-0.0076
684.459	-0.008
684.785	-0.0066
685.111	-0.0068
685.437	-0.0097
685.763	-0.005
686.089	-0.0082
686.415	-0.0108
686.741	-0.009
687.067	-0.0057
687.392	-0.0027
687.718	-0.0073
688.043	-0.0102
688.369	-0.0116
688.694	-0.0081
689.02	-0.0081
689.345	-0.0054
689.67	-0.0058
689.996	-0.0022
690.321	-0.0023
690.646	-0.0051
690.971	-0.0032
691.296	-0.0113
691.621	-0.0081
691.946	-0.0121
692.271	-0.0084
692.596	-0.0076
692.921	-0.0093
693.245	-0.008
693.57	-0.0095
693.895	-0.0104
694.219	-0.0082
694.544	-0.0102
694.868	-0.0077
695.193	-0.0088
695.517	-0.0062
695.841	-0.0051
696.166	-0.0063
696.49	-0.0088
696.814	-0.0089
697.138	-0.0068
697.462	-0.0049
697.786	-0.0067
698.11	-0.0089
698.434	-0.0054
698.758	-0.0116
699.081	-0.0098
699.405	-0.0162
699.729	-0.006
700.052	-0.0051
700.376	-0.0075
700.7	-0.008
701.023	-0.01
701.346	-0.004
701.67	-0.0083
701.993	-0.0043
702.316	-0.01
702.639	-0.0129
702.963	-0.0189
703.286	-0.0158
703.609	-0.0117
703.932	-0.0073
704.255	-0.003
704.578	-0.0071
704.9	-0.0066
705.223	-0.0117
705.546	-0.0058
705.868	-0.0078
706.191	-0.0127
706.514	-0.0155
706.836	-0.019
707.159	-0.0155
707.481	-0.0142
707.803	-0.0092
708.126	-0.0066
708.448	-0.0068
708.77	-0.0097
709.092	-0.011
709.414	-0.0094
709.736	-0.0075
710.058	-0.0022
710.38	-0.0028
710.702	-0.002
711.024	-0.0099
711.345	-0.0125
711.667	-0.0154
711.989	-0.0147
712.31	-0.0134
712.632	-0.0157
712.953	-0.0096
713.275	-0.012
713.596	-0.0048
713.917	-0.0123
714.239	-0.0062
714.56	-0.0104
714.881	-0.0076
715.202	-0.0126
715.523	-0.0083
715.844	-0.0071
716.165	-0.0044
716.486	-0.0059
716.807	-0.0047
717.128	-0.006
717.448	-0.0094
717.769	-0.0083
718.09	-0.0084
718.41	-0.0127
718.731	-0.0135
719.051	-0.0144
719.372	-0.0079
719.692	-0.0079
720.012	-0.0071
720.332	-0.0121
720.653	-0.0108
720.973	-0.0072
721.293	-0.003
721.613	-0.0074
721.933	-0.0088
722.253	-0.0081
722.573	-0.0058
722.892	-0.0068
723.212	-0.0094
723.532	-0.0119
723.851	-0.0135
724.171	-0.0162
724.491	-0.0154
724.81	-0.013
725.129	-0.0101
725.449	-0.0112
725.768	-0.0156
726.087	-0.0131
726.407	-0.0108
726.726	-0.0068
727.045	-0.0083
727.364	-0.0062
727.683	-0.0062
728.002	-0.0052
728.321	-0.0067
728.64	-0.0066
728.958	-0.01
729.277	-0.0107
729.596	-0.013
729.914	-0.0119
730.233	-0.0154
730.551	-0.0155
730.87	-0.0132
731.188	-0.0111
731.507	-0.013
731.825	-0.0155
732.143	-0.0131
732.461	-0.0095
732.779	-0.0057
733.097	-0.009
733.415	-0.0123
733.733	-0.0111
734.051	-0.0101
734.369	-0.0072
734.687	-0.0092
735.005	-0.0121
735.322	-0.0133
735.64	-0.0143
735.957	-0.0123
736.275	-0.0182
736.592	-0.0185
736.91	-0.0134
737.227	-0.0052
737.544	-0.0044
737.862	-0.0059
738.179	-0.0059
738.496	-0.0048
738.813	-0.006
739.13	-0.0085
739.447	-0.0096
739.764	-0.0071
740.081	-0.0075
740.398	-0.0128
740.714	-0.0131
741.031	-0.0136
741.348	-0.0047
741.664	-0.0029
741.981	0.0034
742.297	-0.0024
742.614	-0.0079
742.93	-0.0125
743.246	-0.0141
743.563	-0.016
743.879	-0.0194
744.195	-0.0186
744.511	-0.016
744.827	-0.0134
745.143	-0.0128
745.459	-0.0112
745.775	-0.0139
746.091	-0.0171
746.406	-0.019
746.722	-0.0161
747.038	-0.0058
747.353	-0.0094
747.669	-0.0127
747.984	-0.0179
748.3	-0.0145
748.615	-0.0113
748.93	-0.0158
749.246	-0.0186
749.561	-0.0205
749.876	-0.0162
750.191	-0.0099
750.506	-0.0069
750.821	-0.0057
751.136	-0.0064
751.451	-0.003
751.766	-0.0065
752.08	-0.0092
752.395	-0.015
752.71	-0.0126
753.024	-0.0098
753.339	-0.0103
753.653	-0.012
753.968	-0.0174
754.282	-0.0203
754.596	-0.0219
754.911	-0.0191
755.225	-0.0186
755.539	-0.021
755.853	-0.0225
756.167	-0.0201
756.481	-0.012
756.795	-0.0072
757.109	-0.0086
757.423	-0.013
757.736	-0.0152
758.05	-0.0194
758.364	-0.013
758.677	-0.0148
758.991	-0.008
759.304	-0.0076
759.618	-0.0069
759.931	-0.0083
760.244	-0.0108
760.558	-0.0093
760.871	-0.0092
761.184	-0.0159
761.497	-0.0241
761.81	-0.0266
762.123	-0.0177
762.436	-0.0137
762.749	-0.0121
763.062	-0.0103
763.374	-0.0037
763.687	-0.001
764	-0.006
764.312	-0.0077
764.625	-0.0119
764.937	-0.0123
765.25	-0.0165
765.562	-0.0116
765.874	-0.0086
766.186	-0.0082
766.499	-0.0131
766.811	-0.0162
767.123	-0.0132
767.435	-0.0129
767.747	-0.0109
768.059	-0.0111
768.37	-0.0042
768.682	-0.0035
768.994	-0.0083
769.306	-0.0133
769.617	-0.0155
769.929	-0.0092
770.24	-0.0076
770.552	-0.008
770.863	-0.0128
771.174	-0.0166
771.486	-0.0161
771.797	-0.0116
772.108	-0.0132
772.419	-0.0144
772.73	-0.016
773.041	-0.0128
773.352	-0.0101
773.663	-0.0079
773.974	-0.0052
774.285	-0.0056
774.595	-0.0114
774.906	-0.0175
775.217	-0.0205
775.527	-0.0196
775.838	-0.0173
776.148	-0.0151
776.458	-0.0117
776.769	-0.0135
777.079	-0.0116
777.389	-0.016
777.699	-0.0146
778.009	-0.0153
778.319	-0.0078
778.629	-0.0013
778.939	-0.0011
779.249	-0.0034
779.559	-0.0084
779.869	-0.0073
780.178	-0.0092
780.488	-0.0151
780.798	-0.0197
781.107	-0.0217
781.417	-0.0144
781.726	-0.0099
782.035	-0.009
782.345	-0.0159
782.654	-0.0164
782.963	-0.0198
783.272	-0.0123
783.581	-0.0089
783.89	-0.0017
784.199	-0.0034
784.508	-0.0114
784.817	-0.0152
785.126	-0.0145
785.434	-0.0111
785.743	-0.0094
786.052	-0.0156
786.36	-0.0144
786.669	-0.0175
786.977	-0.0182
787.285	-0.0174
787.594	-0.02
787.902	-0.0166
788.21	-0.0182
788.518	-0.0127
788.826	-0.0128
789.135	-0.0165
789.442	-0.0195
789.75	-0.0205
790.058	-0.0178
790.366	-0.0143
790.674	-0.0159
790.981	-0.0145
791.289	-0.0169
791.597	-0.0113
791.904	-0.0105
792.212	-0.01
792.519	-0.0106
792.826	-0.0081
793.134	-0.0128
793.441	-0.0176
793.748	-0.0192
794.055	-0.0155
794.362	-0.0155
794.669	-0.0154
794.976	-0.0159
795.283	-0.0115
795.59	-0.0134
795.897	-0.0115
796.203	-0.0151
796.51	-0.0161
796.817	-0.0094
797.123	-0.0086
797.43	-0.0111
797.736	-0.0167
798.042	-0.0196
798.349	-0.0154
798.655	-0.0177
798.961	-0.0118
799.267	-0.0171
799.573	-0.0169
799.879	-0.017
800.185	-0.0086
800.491	-0.0063
800.797	-0.0104
801.103	-0.0133
801.408	-0.0136
801.714	-0.0114
802.02	-0.014
802.325	-0.0112
802.631	-0.012
802.936	-0.012
803.242	-0.0128
803.547	-0.0183
803.852	-0.012
804.157	-0.0097
804.462	-0.0068
804.768	-0.0051
805.073	-0.012
805.378	-0.008
805.682	-0.015
805.987	-0.0146
806.292	-0.0118
806.597	-0.0137
806.902	-0.0079
807.206	-0.0197
807.511	-0.0171
807.815	-0.0175
808.12	-0.0178
808.424	-0.0192
808.728	-0.0265
809.033	-0.0137
809.337	-0.0131
809.641	-0.0136
809.945	-0.0162
810.249	-0.0173
810.553	-0.0178
810.857	-0.0236
811.161	-0.0216
811.465	-0.0143
811.768	-0.0103
812.072	-0.0171
812.376	-0.018
812.679	-0.0192
812.983	-0.0111
813.286	-0.0139
813.59	-0.0103
813.893	-0.0052
814.196	0.0005
814.499	-0.0015
814.803	-0.0093
815.106	-0.0089
815.409	-0.0071
815.712	-0.0011
816.015	-0.0077
816.318	0
816.62	-0.0044
816.923	0.0025
817.226	-0.0106
817.528	-0.0074
817.831	-0.0172
818.133	-0.0138
818.436	-0.0252
818.738	-0.0222
819.041	-0.0252
819.343	-0.0175
819.645	-0.0191
819.947	-0.0157
820.249	-0.0199
820.551	-0.01
820.853	-0.0132
821.155	-0.0083
821.457	-0.0211
821.759	-0.0268
822.061	-0.0267
822.362	-0.0201
822.664	-0.002
822.966	-0.0048
823.267	-0.003
823.569	-0.0121
823.87	-0.0065
824.171	-0.0129
824.473	-0.0154
824.774	-0.0158
825.075	-0.0158
825.376	-0.0135
825.677	-0.0152
825.978	-0.0113
826.279	-0.0073
826.58	-0.0055
826.881	-0.0054
827.181	-0.0071
827.482	-0.0114
827.783	-0.0184
828.083	-0.0227
828.384	-0.0176
828.684	-0.0114
828.985	-0.0127
829.285	-0.0179
829.585	-0.0141
829.885	-0.0117
830.185	-0.013
830.486	-0.0177
830.786	-0.0198
831.086	-0.0189
831.385	-0.0177
831.685	-0.0101
831.985	-0.0024
832.285	-0.0056
832.585	-0.0059
832.884	-0.0148
833.184	-0.0137
833.483	-0.0118
833.783	-0.0078
834.082	-0.0093
834.381	-0.0184
834.681	-0.0213
834.98	-0.014
835.279	-0.0082
835.578	-0.013
835.877	-0.026
836.176	-0.0344
836.475	-0.0176
836.774	-0.0143
837.072	-0.0149
837.371	-0.0301
837.67	-0.0197
837.968	-0.013
838.267	-0.0126
838.565	-0.0171
838.864	-0.0238
839.162	-0.014
839.46	-0.0194
839.759	-0.0038
840.057	-0.0114
840.355	-0.0094
840.653	-0.0126
840.951	-0.0115
841.249	-0.0062
841.547	-0.0121
841.845	-0.0145
842.142	-0.0077
842.44	-0.011
842.738	-0.0163
843.035	-0.0379
843.333	-0.0459
843.63	-0.0425
843.928	-0.0206
844.225	-0.0125
844.522	0.0026
844.82	-0.0074
845.117	-0.005
845.414	-0.0223
845.711	-0.0122
846.008	-0.0098
846.305	-0.0065
846.602	-0.0211
846.898	-0.0226
847.195	-0.0338
847.492	-0.0362
847.788	-0.0439
848.085	-0.0414
848.382	-0.0355
848.678	-0.0406
848.974	-0.0323
849.271	-0.0412
849.567	-0.022
849.863	-0.0237
850.159	-0.021
850.455	-0.0263
850.751	-0.007
851.047	0.0033
851.343	0.0004
851.639	-0.0201
851.935	-0.0165
852.23	-0.013
852.526	0.0005
852.822	-0.0032
853.117	-0.0122
853.413	-0.0238
853.708	-0.043
854.003	-0.051
854.299	-0.0483
854.594	-0.0381
854.889	-0.0092
855.184	-0.0176
855.479	-0.0256
855.774	-0.0399
856.069	-0.0416
856.364	-0.0295
856.659	-0.0189
856.954	-0.0134
857.248	-0.031
857.543	-0.0434
857.837	-0.0429
858.132	-0.0296
858.426	-0.027
858.721	-0.0173
859.015	-0.0227
859.309	-0.0291
859.604	-0.0225
859.898	0.0069
860.192	-0.0008
860.486	-0.0038
860.78	-0.0023
861.074	0.009
861.367	0.0044
861.661	-0.0089
861.955	0.0032
862.248	0.0158
862.542	0.0158
862.836	-0.0098
863.129	-0.0486
863.422	-0.0856
863.716	-0.0569
864.009	-0.0312
864.302	0.0044
864.595	-0.0069
864.889	-0.0145
865.182	-0.0107
865.475	-0.0169
865.767	-0.0245
866.06	-0.0266
866.353	-0.0277
866.646	-0.0106
866.938	-0.0284
867.231	-0.0172
867.524	-0.0216
867.816	-0.0155
868.109	-0.0129
868.401	-0.0123
868.693	-0.0111
868.985	0.0118
869.278	0.0118
869.57	0.0207
869.862	-0.0018
870.154	-0.0106
870.446	-0.0267
870.738	-0.0298
871.029	-0.0139
871.321	0.0054
871.613	-0.0226
871.904	-0.0331
872.196	-0.0594
872.487	-0.0454
872.779	-0.0352
873.07	-0.0158
873.362	-0.0016
873.653	-0.023
873.944	-0.0464
874.235	-0.0349
874.526	-0.0098
874.817	-0.0048
875.108	-0.0116
875.399	-0.0302
875.69	-0.0382
875.981	-0.045
876.271	-0.0397
876.562	-0.0318
876.853	-0.0217
877.143	-0.0047
877.434	0.0107
877.724	0.0116
878.014	-0.0065
878.305	-0.0158
878.595	-0.0683
878.885	-0.0563
879.175	-0.0558
879.465	0.0042
879.755	0.0086
880.045	-0.006
880.335	-0.047
880.624	-0.089
880.914	-0.089
