Data from 5SS01MI_072217_1a_Absorbance_19-13-05-715.txt Node
Date: Fri Jul 28 19:13:05 MDT 2017
User: Tank Lab
Spectrometer: FLMS01220
Trigger mode: 0
Integration Time (sec): 1.000000E-1
Scans to average: 10
Electric dark correction enabled: true
Nonlinearity correction enabled: false
Boxcar width: 1
XAxis mode: Wavelengths
Number of Pixels in Spectrum: 2048
>>>>>Begin Spectral Data<<<<<
179.47	0.5889
179.856	0.5889
180.241	-0
180.626	-0
181.011	-0.0448
181.396	0.1667
181.781	-0
182.166	-1.1014
182.551	0.0247
182.936	0.2212
183.321	1.1976
183.706	-0
184.091	-0
184.476	-0
184.86	-0.1931
185.245	-1.1846
185.63	-0.3766
186.015	-0.103
186.399	-0
186.784	-0
187.169	-0
187.553	-0
187.938	-0
188.322	-0.0829
188.707	0.0469
189.091	0.092
189.475	0.1054
189.86	0.0848
190.244	0.1283
190.629	0.168
191.013	0.2237
191.397	0.2274
191.781	0.2652
192.165	0.3112
192.55	0.3326
192.934	0.3438
193.318	0.3363
193.702	0.3658
194.086	0.3774
194.47	0.3717
194.854	0.3719
195.238	0.3726
195.622	0.3892
196.006	0.3934
196.389	0.3939
196.773	0.3923
197.157	0.3961
197.541	0.4067
197.924	0.3961
198.308	0.3989
198.692	0.3971
199.075	0.4111
199.459	0.4087
199.843	0.3957
200.226	0.3881
200.61	0.3826
200.993	0.386
201.376	0.3842
201.76	0.3777
202.143	0.3765
202.527	0.3718
202.91	0.3679
203.293	0.3689
203.676	0.3669
204.059	0.3667
204.443	0.3633
204.826	0.3702
205.209	0.3742
205.592	0.3729
205.975	0.364
206.358	0.3568
206.741	0.3536
207.124	0.3573
207.507	0.3575
207.89	0.3575
208.273	0.3535
208.655	0.3514
209.038	0.3454
209.421	0.3372
209.804	0.3326
210.186	0.3335
210.569	0.3369
210.951	0.3411
211.334	0.3415
211.717	0.3376
212.099	0.3307
212.482	0.3249
212.864	0.3231
213.246	0.3239
213.629	0.3248
214.011	0.3254
214.393	0.3196
214.776	0.3143
215.158	0.3083
215.54	0.3078
215.922	0.3071
216.305	0.3069
216.687	0.3041
217.069	0.3001
217.451	0.2962
217.833	0.2946
218.215	0.2928
218.597	0.2906
218.979	0.2841
219.361	0.2791
219.742	0.278
220.124	0.2792
220.506	0.278
220.888	0.2726
221.27	0.2705
221.651	0.2677
222.033	0.2639
222.415	0.2577
222.796	0.2533
223.178	0.2523
223.559	0.2501
223.941	0.2469
224.322	0.243
224.704	0.2378
225.085	0.2354
225.466	0.2322
225.848	0.2302
226.229	0.229
226.61	0.2287
226.992	0.2277
227.373	0.2239
227.754	0.2203
228.135	0.2183
228.516	0.2165
228.897	0.214
229.278	0.2125
229.659	0.2106
230.04	0.2093
230.421	0.2072
230.802	0.2047
231.183	0.2017
231.564	0.1994
231.944	0.1978
232.325	0.1971
232.706	0.1953
233.087	0.1952
233.467	0.1943
233.848	0.1936
234.229	0.1921
234.609	0.1902
234.99	0.1881
235.37	0.1878
235.751	0.1845
236.131	0.181
236.511	0.1789
236.892	0.1798
237.272	0.1803
237.652	0.1785
238.033	0.177
238.413	0.1766
238.793	0.175
239.173	0.1728
239.553	0.172
239.933	0.1722
240.313	0.1741
240.694	0.1715
241.074	0.1687
241.453	0.1663
241.833	0.1657
242.213	0.1661
242.593	0.1645
242.973	0.1665
243.353	0.1641
243.732	0.1633
244.112	0.1603
244.492	0.1606
244.872	0.1606
245.251	0.1612
245.631	0.1618
246.01	0.1602
246.39	0.1583
246.769	0.1577
247.149	0.1593
247.528	0.1605
247.908	0.1587
248.287	0.1568
248.666	0.1553
249.045	0.1548
249.425	0.1536
249.804	0.1517
250.183	0.1514
250.562	0.1505
250.941	0.1506
251.32	0.1505
251.699	0.1508
252.078	0.1499
252.457	0.1489
252.836	0.1481
253.215	0.1489
253.594	0.1485
253.973	0.1487
254.352	0.1471
254.731	0.146
255.109	0.145
255.488	0.145
255.867	0.1458
256.245	0.1447
256.624	0.1437
257.002	0.1426
257.381	0.1426
257.759	0.141
258.138	0.1404
258.516	0.1402
258.895	0.1407
259.273	0.1389
259.651	0.1378
260.03	0.1385
260.408	0.1392
260.786	0.1395
261.164	0.1389
261.542	0.1388
261.921	0.1375
262.299	0.1379
262.677	0.1374
263.055	0.137
263.433	0.1345
263.811	0.1339
264.188	0.1333
264.566	0.134
264.944	0.1329
265.322	0.1334
265.7	0.1328
266.077	0.1327
266.455	0.1301
266.833	0.1299
267.21	0.1304
267.588	0.1321
267.966	0.1307
268.343	0.1295
268.721	0.1284
269.098	0.1276
269.475	0.1273
269.853	0.1265
270.23	0.127
270.607	0.1248
270.985	0.1241
271.362	0.122
271.739	0.1223
272.116	0.1226
272.494	0.1225
272.871	0.1215
273.248	0.1212
273.625	0.121
274.002	0.1202
274.379	0.1175
274.756	0.117
275.132	0.1161
275.509	0.117
275.886	0.1152
276.263	0.1157
276.64	0.1157
277.016	0.116
277.393	0.1157
277.77	0.1139
278.146	0.1137
278.523	0.1124
278.899	0.1122
279.276	0.1115
279.652	0.1118
280.029	0.1116
280.405	0.1102
280.782	0.1092
281.158	0.1084
281.534	0.1072
281.91	0.1068
282.287	0.1052
282.663	0.1074
283.039	0.1077
283.415	0.1066
283.791	0.1037
284.167	0.1018
284.543	0.1027
284.919	0.103
285.295	0.1033
285.671	0.1026
286.047	0.1023
286.423	0.1011
286.799	0.1021
287.174	0.101
287.55	0.0999
287.926	0.0989
288.301	0.0997
288.677	0.1008
289.053	0.0995
289.428	0.0983
289.804	0.0971
290.179	0.0974
290.555	0.0977
290.93	0.0972
291.305	0.0949
291.681	0.0939
292.056	0.0941
292.431	0.0937
292.806	0.0937
293.182	0.0926
293.557	0.0935
293.932	0.0925
294.307	0.0923
294.682	0.0914
295.057	0.0912
295.432	0.0893
295.807	0.0872
296.182	0.0863
296.557	0.0876
296.932	0.0882
297.306	0.0885
297.681	0.0882
298.056	0.0872
298.43	0.0849
298.805	0.0817
299.18	0.0817
299.554	0.0822
299.929	0.0838
300.303	0.0837
300.678	0.0817
301.052	0.0844
301.427	0.084
301.801	0.0855
302.175	0.0819
302.55	0.0813
302.924	0.0796
303.298	0.0792
303.672	0.0787
304.046	0.0788
304.421	0.0791
304.795	0.0805
305.169	0.0798
305.543	0.0782
305.917	0.0769
306.291	0.0781
306.664	0.0797
307.038	0.0775
307.412	0.0764
307.786	0.0732
308.16	0.0732
308.533	0.0731
308.907	0.074
309.281	0.0758
309.654	0.0751
310.028	0.0747
310.401	0.0735
310.775	0.0729
311.148	0.0729
311.522	0.0729
311.895	0.0725
312.268	0.073
312.642	0.0727
313.015	0.0729
313.388	0.0716
313.761	0.0699
314.135	0.0707
314.508	0.0704
314.881	0.0695
315.254	0.0663
315.627	0.0659
316	0.0666
316.373	0.0669
316.746	0.0668
317.118	0.0668
317.491	0.0683
317.864	0.0696
318.237	0.0696
318.61	0.0669
318.982	0.0643
319.355	0.0637
319.727	0.0645
320.1	0.0649
320.473	0.0629
320.845	0.0638
321.218	0.0629
321.59	0.0635
321.962	0.0622
322.335	0.0613
322.707	0.0618
323.079	0.0624
323.452	0.0643
323.824	0.0647
324.196	0.0623
324.568	0.06
324.94	0.0589
325.312	0.06
325.684	0.0616
326.056	0.0601
326.428	0.0592
326.8	0.0566
327.172	0.0577
327.544	0.0564
327.915	0.0554
328.287	0.0553
328.659	0.0567
329.031	0.0576
329.402	0.0553
329.774	0.0538
330.145	0.0526
330.517	0.0534
330.888	0.053
331.26	0.0529
331.631	0.0527
332.003	0.053
332.374	0.0538
332.745	0.0528
333.117	0.0522
333.488	0.0506
333.859	0.0535
334.23	0.0524
334.601	0.0528
334.972	0.0531
335.343	0.0545
335.714	0.0533
336.085	0.0491
336.456	0.0482
336.827	0.0498
337.198	0.0509
337.569	0.0499
337.94	0.0485
338.31	0.0474
338.681	0.0455
339.052	0.0469
339.422	0.0471
339.793	0.0499
340.164	0.0486
340.534	0.0479
340.905	0.046
341.275	0.0442
341.645	0.044
342.016	0.0465
342.386	0.0463
342.756	0.0477
343.127	0.0445
343.497	0.0438
343.867	0.0415
344.237	0.0431
344.607	0.0433
344.977	0.0439
345.347	0.0437
345.717	0.0437
346.087	0.0442
346.457	0.0442
346.827	0.0457
347.197	0.0447
347.567	0.0419
347.936	0.0401
348.306	0.041
348.676	0.0434
349.046	0.0447
349.415	0.0441
349.785	0.0433
350.154	0.0413
350.524	0.0423
350.893	0.0406
351.263	0.0408
351.632	0.0386
352.001	0.0397
352.371	0.0404
352.74	0.0401
353.109	0.0391
353.478	0.0381
353.847	0.04
354.217	0.0415
354.586	0.041
354.955	0.0397
355.324	0.0385
355.693	0.0401
356.062	0.0395
356.43	0.0402
356.799	0.0374
357.168	0.0355
357.537	0.0336
357.906	0.0353
358.274	0.0369
358.643	0.0362
359.011	0.0364
359.38	0.0357
359.749	0.0358
360.117	0.0342
360.486	0.0339
360.854	0.0348
361.222	0.0346
361.591	0.0349
361.959	0.033
362.327	0.0334
362.695	0.0327
363.064	0.0341
363.432	0.0336
363.8	0.0315
364.168	0.0299
364.536	0.0295
364.904	0.0325
365.272	0.0315
365.64	0.0321
366.008	0.0317
366.376	0.034
366.743	0.0324
367.111	0.0327
367.479	0.0325
367.847	0.035
368.214	0.0337
368.582	0.0315
368.949	0.0316
369.317	0.0303
369.684	0.0298
370.052	0.0269
370.419	0.0284
370.787	0.0305
371.154	0.0331
371.521	0.0338
371.889	0.0339
372.256	0.0316
372.623	0.0304
372.99	0.0285
373.357	0.0287
373.724	0.029
374.091	0.0298
374.458	0.0298
374.825	0.0293
375.192	0.0281
375.559	0.0274
375.926	0.0268
376.293	0.0254
376.659	0.0246
377.026	0.0258
377.393	0.0284
377.759	0.0294
378.126	0.0283
378.492	0.026
378.859	0.0241
379.225	0.0236
379.592	0.025
379.958	0.0264
380.325	0.0266
380.691	0.0267
381.057	0.0264
381.423	0.0261
381.79	0.0246
382.156	0.0233
382.522	0.0238
382.888	0.0254
383.254	0.0263
383.62	0.0251
383.986	0.0234
384.352	0.0231
384.718	0.0224
385.084	0.0228
385.449	0.0206
385.815	0.0214
386.181	0.0233
386.547	0.0258
386.912	0.0264
387.278	0.0249
387.643	0.0234
388.009	0.023
388.374	0.0212
388.74	0.023
389.105	0.0226
389.471	0.0238
389.836	0.024
390.201	0.0245
390.566	0.0241
390.932	0.0231
391.297	0.0205
391.662	0.0209
392.027	0.0203
392.392	0.0218
392.757	0.0198
393.122	0.0193
393.487	0.0193
393.852	0.0211
394.217	0.0216
394.582	0.0227
394.946	0.0221
395.311	0.0211
395.676	0.0195
396.04	0.0224
396.405	0.0239
396.77	0.0248
397.134	0.021
397.499	0.0199
397.863	0.0187
398.227	0.0198
398.592	0.0177
398.956	0.0182
399.32	0.0173
399.685	0.0191
400.049	0.0191
400.413	0.0178
400.777	0.0163
401.141	0.0157
401.505	0.0176
401.869	0.0198
402.233	0.0203
402.597	0.0189
402.961	0.0177
403.325	0.0194
403.689	0.0212
404.053	0.0218
404.416	0.0173
404.78	0.0156
405.144	0.0162
405.507	0.0186
405.871	0.019
406.234	0.0182
406.598	0.0178
406.961	0.0171
407.325	0.0161
407.688	0.0153
408.051	0.0157
408.415	0.0187
408.778	0.0177
409.141	0.018
409.504	0.0165
409.867	0.0182
410.23	0.0187
410.593	0.019
410.956	0.0173
411.319	0.0159
411.682	0.0123
412.045	0.0141
412.408	0.0127
412.771	0.0165
413.134	0.0151
413.496	0.0158
413.859	0.0156
414.222	0.0159
414.584	0.0195
414.947	0.0189
415.309	0.0199
415.672	0.0178
416.034	0.0171
416.396	0.0154
416.759	0.0152
417.121	0.0165
417.483	0.0159
417.846	0.014
418.208	0.0108
418.57	0.0113
418.932	0.0112
419.294	0.0125
419.656	0.0133
420.018	0.0139
420.38	0.0136
420.742	0.0125
421.104	0.0131
421.466	0.0116
421.827	0.0104
422.189	0.0085
422.551	0.0117
422.912	0.0146
423.274	0.0179
423.636	0.0159
423.997	0.0147
424.359	0.0133
424.72	0.0154
425.081	0.0164
425.443	0.0187
425.804	0.0187
426.165	0.0187
426.527	0.0159
426.888	0.0135
427.249	0.0127
427.61	0.0137
427.971	0.0138
428.332	0.0133
428.693	0.0128
429.054	0.0128
429.415	0.0134
429.776	0.0121
430.137	0.0111
430.498	0.0135
430.858	0.0163
431.219	0.0156
431.58	0.0134
431.94	0.0128
432.301	0.0134
432.661	0.011
433.022	0.0084
433.382	0.0099
433.743	0.0139
434.103	0.0156
434.463	0.0166
434.824	0.0155
435.184	0.0158
435.544	0.0154
435.904	0.0163
436.264	0.0157
436.624	0.0141
436.985	0.0128
437.345	0.0146
437.704	0.0149
438.064	0.0141
438.424	0.0111
438.784	0.0104
439.144	0.0096
439.504	0.013
439.863	0.0139
440.223	0.0142
440.583	0.0115
440.942	0.0106
441.302	0.0103
441.661	0.0103
442.021	0.0135
442.38	0.0136
442.739	0.0148
443.099	0.0085
443.458	0.011
443.817	0.0095
444.176	0.0127
444.536	0.0118
444.895	0.0138
445.254	0.0126
445.613	0.0125
445.972	0.011
446.331	0.0103
446.69	0.0097
447.049	0.0066
447.407	0.008
447.766	0.0074
448.125	0.0113
448.484	0.0119
448.842	0.0121
449.201	0.0108
449.559	0.01
449.918	0.0105
450.276	0.0113
450.635	0.0127
450.993	0.0133
451.352	0.0111
451.71	0.01
452.068	0.0078
452.426	0.0088
452.785	0.0094
453.143	0.0116
453.501	0.0131
453.859	0.0132
454.217	0.0129
454.575	0.0092
454.933	0.0069
455.291	0.008
455.649	0.011
456.006	0.0123
456.364	0.0094
456.722	0.0104
457.079	0.01
457.437	0.0112
457.795	0.0114
458.152	0.0143
458.51	0.0142
458.867	0.0121
459.225	0.0087
459.582	0.0064
459.939	0.0052
460.297	0.0066
460.654	0.0086
461.011	0.0105
461.368	0.0104
461.725	0.0092
462.082	0.0106
462.44	0.0086
462.797	0.0093
463.153	0.0092
463.51	0.0095
463.867	0.0103
464.224	0.0099
464.581	0.0132
464.938	0.0141
465.294	0.0135
465.651	0.0128
466.008	0.0088
466.364	0.0091
466.721	0.0076
467.077	0.0072
467.434	0.0042
467.79	0.0035
468.146	0.0035
468.503	0.0039
468.859	0.0045
469.215	0.0041
469.571	0.0052
469.927	0.0076
470.284	0.0118
470.64	0.0131
470.996	0.0095
471.352	0.0082
471.707	0.0079
472.063	0.0101
472.419	0.0113
472.775	0.0117
473.131	0.01
473.486	0.0076
473.842	0.0069
474.198	0.0077
474.553	0.0071
474.909	0.0086
475.264	0.0085
475.62	0.0099
475.975	0.0093
476.331	0.0097
476.686	0.0115
477.041	0.0088
477.396	0.0074
477.752	0.0068
478.107	0.007
478.462	0.0077
478.817	0.0067
479.172	0.0089
479.527	0.0078
479.882	0.0069
480.237	0.005
480.591	0.0047
480.946	0.005
481.301	0.005
481.656	0.0065
482.01	0.0057
482.365	0.0066
482.72	0.0059
483.074	0.0056
483.429	0.0044
483.783	0.0052
484.137	0.0066
484.492	0.0094
484.846	0.0067
485.2	0.0082
485.555	0.0069
485.909	0.0072
486.263	0.006
486.617	0.0074
486.971	0.0083
487.325	0.008
487.679	0.0064
488.033	0.0078
488.387	0.0082
488.741	0.006
489.094	0.0074
489.448	0.0057
489.802	0.008
490.156	0.0049
490.509	0.0071
490.863	0.006
491.216	0.0059
491.57	0.0029
491.923	0.0031
492.277	0.0039
492.63	0.0072
492.983	0.0084
493.337	0.0075
493.69	0.0063
494.043	0.0031
494.396	0.0047
494.749	0.0037
495.102	0.0061
495.455	0.0056
495.808	0.007
496.161	0.0059
496.514	0.0051
496.867	0.0034
497.22	0.0029
497.572	0.0036
497.925	0.0074
498.278	0.0088
498.63	0.0079
498.983	0.003
499.335	0.0031
499.688	0.0038
500.04	0.004
500.393	0.0041
500.745	0.0024
501.097	0.0028
501.449	0.0022
501.802	0.0023
502.154	0.0028
502.506	0.003
502.858	0.003
503.21	0.0031
503.562	0.0014
503.914	0.0017
504.266	0.0024
504.618	0.005
504.969	0.0066
505.321	0.0051
505.673	0.0061
506.025	0.0038
506.376	0.0045
506.728	0.0035
507.079	0.0055
507.431	0.0055
507.782	0.0051
508.134	0.0042
508.485	0.0053
508.836	0.0058
509.188	0.0038
509.539	0.0011
509.89	0.0024
510.241	0.0031
510.592	0.0027
510.943	0.0003
511.294	0.0031
511.645	0.0035
511.996	0.0056
512.347	0.0036
512.698	0.0047
513.049	0.0035
513.399	0.004
513.75	0.0041
514.101	0.0027
514.451	0.0021
514.802	0.0027
515.152	0.0029
515.503	0.0049
515.853	0.0051
516.203	0.0053
516.554	0.0053
516.904	0.0061
517.254	0.0089
517.604	0.007
517.955	0.0054
518.305	-0.0005
518.655	-0.0006
519.005	-0.0023
519.355	-0.0005
519.705	-0.0006
520.055	-0.0011
520.404	-0.0017
520.754	-0.004
521.104	-0.0016
521.454	-0.0014
521.803	-0.0006
522.153	0.0001
522.502	0.0016
522.852	0.0052
523.201	0.0027
523.551	0.0033
523.9	-0.0008
524.249	-0.0005
524.599	-0.0019
524.948	0.0001
525.297	0.0017
525.646	0.0015
525.995	0.0014
526.344	0.0008
526.694	0.0025
527.042	0.0013
527.391	0.0003
527.74	-0.0003
528.089	0.0025
528.438	0.0033
528.787	0.0024
529.135	-0.0005
529.484	-0.002
529.833	-0.0008
530.181	-0.0002
530.53	0.0001
530.878	-0.0029
531.227	-0.0037
531.575	-0.0025
531.923	-0.001
532.271	-0
532.62	0.0018
532.968	0.0029
533.316	-0.0002
533.664	0.0004
534.012	0.0027
534.36	0.0074
534.708	0.0068
535.056	0.006
535.404	0.0043
535.752	0.0053
536.1	0.0023
536.447	0.0024
536.795	-0.0003
537.143	-0.0012
537.49	-0.0024
537.838	-0.0027
538.185	0.0013
538.533	0.0016
538.88	0.0014
539.228	0.0012
539.575	0.001
539.922	0.0023
540.269	0
540.617	0.0022
540.964	-0.0014
541.311	-0.0011
541.658	-0.0043
542.005	-0.0012
542.352	0.0006
542.699	0.0005
543.045	0.0005
543.392	0.0004
543.739	0.0003
544.086	-0.0009
544.432	-0.0012
544.779	-0.0019
545.126	-0.0017
545.472	-0.0042
545.819	-0.0017
546.165	-0.0034
546.512	-0.0029
546.858	-0.0038
547.204	-0.0025
547.55	-0.0015
547.897	-0.0001
548.243	0.0004
548.589	0.0016
548.935	0.0006
549.281	0.001
549.627	-0.0014
549.973	-0.0003
550.319	-0.0012
550.665	-0.0012
551.01	-0.0023
551.356	0.0012
551.702	0.0037
552.048	0.0068
552.393	0.0039
552.739	0.0013
553.084	-0.0011
553.43	-0.0026
553.775	-0.0022
554.12	-0.0013
554.466	-0.0006
554.811	-0.0015
555.156	-0.0054
555.502	-0.0042
555.847	0.0006
556.192	0.0029
556.537	0.0009
556.882	-0.0033
557.227	-0.0034
557.572	-0.0046
557.917	-0.0065
558.261	-0.0045
558.606	-0.0017
558.951	-0.0017
559.295	-0.0017
559.64	-0.0013
559.985	0.0004
560.329	-0.0017
560.674	0.0002
561.018	-0.0009
561.363	-0.0003
561.707	-0.0022
562.051	-0.0028
562.395	-0.0053
562.74	-0.0051
563.084	-0.0033
563.428	-0.0009
563.772	-0.0042
564.116	-0.0044
564.46	-0.0042
564.804	-0.0019
565.148	-0.0014
565.492	-0.0026
565.835	-0.0022
566.179	-0.0038
566.523	-0.0027
566.866	-0.0018
567.21	0.0008
567.554	0.0041
567.897	0.0031
568.24	0.0041
568.584	0.0013
568.927	-0.0011
569.271	-0.002
569.614	-0.0028
569.957	-0.0009
570.3	-0.0048
570.643	-0.0044
570.986	-0.0052
571.329	-0.0027
571.672	-0.0022
572.015	-0.0022
572.358	-0.0028
572.701	-0.0063
573.044	-0.0064
573.387	-0.005
573.729	-0.0042
574.072	-0.0036
574.414	-0.0056
574.757	-0.004
575.099	-0.0029
575.442	-0.0004
575.784	-0.0022
576.127	-0.0031
576.469	-0.0045
576.811	-0.0041
577.153	-0.0057
577.496	-0.0074
577.838	-0.0067
578.18	-0.0057
578.522	-0.0039
578.864	-0.0047
579.206	-0.0069
579.548	-0.0062
579.889	-0.0044
580.231	-0.0067
580.573	-0.0102
580.915	-0.0113
581.256	-0.0065
581.598	-0.0031
581.939	-0.0009
582.281	-0.0062
582.622	-0.0055
582.964	-0.0042
583.305	-0.0012
583.646	-0.0027
583.988	-0.0129
584.329	-0.0125
584.67	-0.0103
585.011	-0.005
585.352	-0.001
585.693	-0.0031
586.034	-0.0008
586.375	-0.0017
586.716	-0.0019
587.057	-0.001
587.398	-0.0079
587.738	-0.0086
588.079	-0.0073
588.42	-0.0037
588.76	-0.0007
589.101	-0.0018
589.441	-0.0019
589.782	-0.0043
590.122	-0.0079
590.463	-0.0077
590.803	-0.0066
591.143	-0.0045
591.483	-0.0038
591.823	-0.0029
592.164	-0.0034
592.504	-0.0072
592.844	-0.0093
593.184	-0.0097
593.523	-0.0063
593.863	-0.0057
594.203	-0.0076
594.543	-0.0104
594.883	-0.008
595.222	-0.0068
595.562	-0.0104
595.901	-0.0119
596.241	-0.0101
596.58	-0.0038
596.92	-0.0009
597.259	0.0022
597.599	0.0005
597.938	-0.0033
598.277	-0.0034
598.616	-0.0025
598.955	-0.0024
599.295	-0.0066
599.634	-0.0093
599.973	-0.0104
600.312	-0.0098
600.65	-0.0065
600.989	-0.0034
601.328	-0.0014
601.667	-0.0083
602.005	-0.006
602.344	-0.0064
602.683	-0.0073
603.021	-0.0095
603.36	-0.0079
603.698	-0.0037
604.037	-0.0039
604.375	-0.0047
604.713	-0.0036
605.052	-0.0031
605.39	-0.0064
605.728	-0.006
606.066	-0.0106
606.404	-0.0123
606.742	-0.0126
607.08	-0.0104
607.418	-0.0042
607.756	-0.0043
608.094	-0.0068
608.431	-0.0081
608.769	-0.0098
609.107	-0.0045
609.444	-0.0082
609.782	-0.0059
610.12	-0.0086
610.457	-0.0079
610.794	-0.0058
611.132	-0.0057
611.469	-0.0053
611.806	-0.0068
612.144	-0.0039
612.481	-0.0058
612.818	-0.0058
613.155	-0.006
613.492	-0.0025
613.829	-0.0028
614.166	-0.0076
614.503	-0.0074
614.84	-0.0074
615.176	-0.0066
615.513	-0.0069
615.85	-0.01
616.187	-0.0092
616.523	-0.0064
616.86	-0.007
617.196	-0.0078
617.533	-0.0137
617.869	-0.0083
618.205	-0.0059
618.542	-0
618.878	0.0014
619.214	-0.0004
619.55	-0.0026
619.886	-0.0027
620.222	-0.001
620.558	-0.0027
620.894	-0.0049
621.23	-0.0055
621.566	-0.0067
621.902	-0.0093
622.238	-0.0093
622.573	-0.0061
622.909	-0.001
623.244	-0.003
623.58	-0.0044
623.916	-0.0076
624.251	-0.0071
624.586	-0.0109
624.922	-0.0128
625.257	-0.0082
625.592	-0.0054
625.927	-0.0005
626.263	-0.0035
626.598	-0.0055
626.933	-0.0109
627.268	-0.0113
627.603	-0.0092
627.938	-0.0058
628.272	-0.0055
628.607	-0.0048
628.942	-0.0053
629.277	-0.0035
629.611	-0.0069
629.946	-0.0067
630.281	-0.008
630.615	-0.0066
630.949	-0.0051
631.284	-0.0041
631.618	-0.0032
631.953	-0.0055
632.287	-0.0061
632.621	-0.0038
632.955	-0.0038
633.289	-0.002
633.623	-0.0019
633.957	-0.0012
634.291	-0.0009
634.625	-0.0025
634.959	-0.0044
635.293	-0.0068
635.627	-0.0065
635.96	-0.0044
636.294	-0.0063
636.627	-0.007
636.961	-0.0112
637.294	-0.0093
637.628	-0.0085
637.961	-0.0038
638.295	-0.0071
638.628	-0.011
638.961	-0.016
639.294	-0.0135
639.628	-0.0072
639.961	-0.003
640.294	-0.0014
640.627	-0.0039
640.96	-0.0106
641.293	-0.0113
641.625	-0.013
641.958	-0.0087
642.291	-0.0049
642.624	-0.0042
642.956	-0.0042
643.289	-0.0092
643.621	-0.0118
643.954	-0.0159
644.286	-0.0187
644.619	-0.0169
644.951	-0.0114
645.283	-0.0073
645.616	-0.0058
645.948	-0.0059
646.28	-0.0041
646.612	-0.0054
646.944	-0.002
647.276	-0.0011
647.608	-0.0021
647.94	-0.0039
648.272	-0.0041
648.603	-0.0023
648.935	-0.0049
649.267	-0.0059
649.598	-0.005
649.93	-0.0064
650.261	-0.0074
650.593	-0.009
650.924	-0.0089
651.256	-0.0083
651.587	-0.01
651.918	-0.0067
652.25	-0.0076
652.581	-0.005
652.912	-0.0054
653.243	-0.0054
653.574	-0.0073
653.905	-0.0077
654.236	-0.0096
654.567	-0.0084
654.897	-0.0125
655.228	-0.0089
655.559	-0.0088
655.89	-0.0066
656.22	-0.0053
656.551	-0.0046
656.881	-0.0018
657.212	-0.0074
657.542	-0.0068
657.872	-0.009
658.203	-0.0083
658.533	-0.0332
658.863	-0.0287
659.193	-0.0141
659.523	-0.0048
659.853	0.0118
660.183	-0.0032
660.513	-0.008
660.843	-0.0117
661.173	-0.01
661.503	-0.0098
661.833	-0.0057
662.162	-0.0044
662.492	-0.0003
662.822	-0.0058
663.151	-0.0094
663.481	-0.013
663.81	-0.0148
664.139	-0.0069
664.469	-0.0076
664.798	-0.0025
665.127	-0.0111
665.456	-0.013
665.785	-0.0115
666.114	-0.0122
666.443	-0.0074
666.772	-0.0111
667.101	-0.01
667.43	-0.0138
667.759	-0.0097
668.088	-0.0101
668.416	-0.0082
668.745	-0.0114
669.074	-0.0119
669.402	-0.0193
669.731	-0.0164
670.059	-0.0109
670.388	-0.0037
670.716	-0.0067
671.044	-0.0038
671.372	-0.0029
671.701	-0.0041
672.029	-0.0088
672.357	-0.0103
672.685	-0.0106
673.013	-0.0118
673.341	-0.0079
673.669	-0.0063
673.996	-0.0027
674.324	-0.0101
674.652	-0.0089
674.98	-0.0096
675.307	-0.0084
675.635	-0.0098
675.962	-0.0094
676.29	-0.0111
676.617	-0.0093
676.945	-0.0116
677.272	-0.0105
677.599	-0.0086
677.926	-0.0085
678.253	-0.0028
678.581	-0.0042
678.908	-0.0052
679.235	-0.0081
679.561	-0.0087
679.888	-0.0066
680.215	-0.0081
680.542	-0.0098
680.869	-0.0114
681.195	-0.0104
681.522	-0.0099
681.849	-0.0114
682.175	-0.0114
682.502	-0.0133
682.828	-0.0089
683.154	-0.0099
683.481	-0.0057
683.807	-0.0091
684.133	-0.0101
684.459	-0.0121
684.785	-0.0119
685.111	-0.0086
685.437	-0.0126
685.763	-0.0126
686.089	-0.0192
686.415	-0.0169
686.741	-0.0147
687.067	-0.01
687.392	-0.0103
687.718	-0.016
688.043	-0.0169
688.369	-0.0169
688.694	-0.008
689.02	-0.0089
689.345	-0.0023
689.67	-0.0088
689.996	-0.0085
690.321	-0.0135
690.646	-0.0113
690.971	-0.009
691.296	-0.0064
691.621	-0.0113
691.946	-0.0125
692.271	-0.0173
692.596	-0.0088
692.921	-0.006
693.245	-0.0002
693.57	-0.0066
693.895	-0.0099
694.219	-0.0113
694.544	-0.0089
694.868	-0.0091
695.193	-0.0115
695.517	-0.0127
695.841	-0.0131
696.166	-0.0141
696.49	-0.0141
696.814	-0.0086
697.138	-0.0039
697.462	-0.0029
697.786	-0.0064
698.11	-0.0113
698.434	-0.01
698.758	-0.0081
699.081	-0.0076
699.405	-0.0119
699.729	-0.0168
700.052	-0.017
700.376	-0.0112
700.7	-0.0098
701.023	-0.0083
701.346	-0.0133
701.67	-0.0112
701.993	-0.0132
702.316	-0.0114
702.639	-0.0148
702.963	-0.0173
703.286	-0.0169
703.609	-0.0158
703.932	-0.0125
704.255	-0.0095
704.578	-0.0083
704.9	-0.0058
705.223	-0.01
705.546	-0.0105
705.868	-0.0107
706.191	-0.014
706.514	-0.0153
706.836	-0.0161
707.159	-0.0119
707.481	-0.0073
707.803	-0.0079
708.126	-0.0055
708.448	-0.0121
708.77	-0.0107
709.092	-0.0093
709.414	-0.0102
709.736	-0.0131
710.058	-0.0175
710.38	-0.0161
710.702	-0.0152
711.024	-0.0139
711.345	-0.0106
711.667	-0.0076
711.989	-0.0048
712.31	-0.006
712.632	-0.0096
712.953	-0.0119
713.275	-0.0098
713.596	-0.0086
713.917	-0.0077
714.239	-0.0119
714.56	-0.013
714.881	-0.0122
715.202	-0.0121
715.523	-0.015
715.844	-0.0149
716.165	-0.0179
716.486	-0.0156
716.807	-0.0161
717.128	-0.0113
717.448	-0.0104
717.769	-0.0101
718.09	-0.0093
718.41	-0.0056
718.731	-0.0047
719.051	-0.0028
719.372	-0.0004
719.692	-0.0032
720.012	-0.0046
720.332	-0.0107
720.653	-0.0114
720.973	-0.0161
721.293	-0.0187
721.613	-0.0171
721.933	-0.0129
722.253	-0.0075
722.573	-0.0047
722.892	-0.007
723.212	-0.011
723.532	-0.0171
723.851	-0.0175
724.171	-0.0132
724.491	-0.0155
724.81	-0.0184
725.129	-0.0161
725.449	-0.0081
725.768	-0.0064
726.087	-0.0116
726.407	-0.0141
726.726	-0.0055
727.045	-0.0029
727.364	-0.0012
727.683	-0.0062
728.002	-0.0076
728.321	-0.007
728.64	-0.0052
728.958	-0.0066
729.277	-0.008
729.596	-0.0071
729.914	-0.0075
730.233	-0.0048
730.551	-0.0109
730.87	-0.0118
731.188	-0.0119
731.507	-0.0085
731.825	-0.0073
732.143	-0.0096
732.461	-0.0084
732.779	-0.0094
733.097	-0.014
733.415	-0.0181
733.733	-0.018
734.051	-0.0129
734.369	-0.0112
734.687	-0.0116
735.005	-0.0084
735.322	-0.0096
735.64	-0.0111
735.957	-0.0142
736.275	-0.0104
736.592	-0.0057
736.91	-0.0074
737.227	-0.0132
737.544	-0.0149
737.862	-0.0113
738.179	-0.0125
738.496	-0.0106
738.813	-0.014
739.13	-0.0108
739.447	-0.0095
739.764	-0.0162
740.081	-0.0175
740.398	-0.0201
740.714	-0.014
741.031	-0.007
741.348	-0.0079
741.664	-0.0071
741.981	-0.0148
742.297	-0.0105
742.614	-0.0094
742.93	-0.0054
743.246	-0.0084
743.563	-0.0109
743.879	-0.0172
744.195	-0.016
744.511	-0.017
744.827	-0.0133
745.143	-0.016
745.459	-0.0155
745.775	-0.0116
746.091	-0.0101
746.406	-0.0061
746.722	-0.0081
747.038	-0.011
747.353	-0.0166
747.669	-0.0162
747.984	-0.0131
748.3	-0.0097
748.615	-0.0158
748.93	-0.0153
749.246	-0.0171
749.561	-0.0145
749.876	-0.0156
750.191	-0.0168
750.506	-0.0146
750.821	-0.0122
751.136	-0.0106
751.451	-0.0053
751.766	-0.0085
752.08	-0.0114
752.395	-0.0175
752.71	-0.0189
753.024	-0.0144
753.339	-0.0075
753.653	-0.004
753.968	-0.0074
754.282	-0.014
754.596	-0.0107
754.911	-0.0091
755.225	-0.0042
755.539	-0.013
755.853	-0.0102
756.167	-0.0146
756.481	-0.0125
756.795	-0.0153
757.109	-0.0154
757.423	-0.0176
757.736	-0.0157
758.05	-0.0131
758.364	-0.0101
758.677	-0.0111
758.991	-0.013
759.304	-0.0154
759.618	-0.0155
759.931	-0.0134
760.244	-0.0117
760.558	-0.0112
760.871	-0.0112
761.184	-0.0096
761.497	-0.0071
761.81	-0.0124
762.123	-0.0156
762.436	-0.0182
762.749	-0.0129
763.062	-0.0115
763.374	-0.0138
763.687	-0.0152
764	-0.0139
764.312	-0.0094
764.625	-0.0098
764.937	-0.0093
765.25	-0.0147
765.562	-0.0137
765.874	-0.012
766.186	-0.0106
766.499	-0.0109
766.811	-0.0143
767.123	-0.0174
767.435	-0.0211
767.747	-0.0191
768.059	-0.015
768.37	-0.0123
768.682	-0.0096
768.994	-0.0137
769.306	-0.0144
769.617	-0.0173
769.929	-0.0091
770.24	-0.0057
770.552	-0.0144
770.863	-0.0222
771.174	-0.0197
771.486	-0.0119
771.797	-0.0085
772.108	-0.0112
772.419	-0.0069
772.73	-0.0077
773.041	-0.0091
773.352	-0.0144
773.663	-0.0127
773.974	-0.0092
774.285	-0.01
774.595	-0.013
774.906	-0.0109
775.217	-0.0081
775.527	-0.0054
775.838	-0.01
776.148	-0.0116
776.458	-0.0132
776.769	-0.0141
777.079	-0.012
777.389	-0.015
777.699	-0.0146
778.009	-0.0168
778.319	-0.0114
778.629	-0.0096
778.939	-0.0059
779.249	-0.0058
779.559	-0.0076
779.869	-0.0167
780.178	-0.0226
780.488	-0.025
780.798	-0.02
781.107	-0.0133
781.417	-0.018
781.726	-0.0238
782.035	-0.0264
782.345	-0.0159
782.654	-0.01
782.963	-0.0078
783.272	-0.0128
783.581	-0.0112
783.89	-0.0133
784.199	-0.0113
784.508	-0.0156
784.817	-0.0184
785.126	-0.0226
785.434	-0.0183
785.743	-0.012
786.052	-0.0072
786.36	-0.0145
786.669	-0.02
786.977	-0.0235
787.285	-0.0186
787.594	-0.0131
787.902	-0.0111
788.21	-0.0107
788.518	-0.0113
788.826	-0.01
789.135	-0.0088
789.442	-0.0093
789.75	-0.0107
790.058	-0.0149
790.366	-0.0185
790.674	-0.0237
790.981	-0.0217
791.289	-0.0208
791.597	-0.0213
791.904	-0.0198
792.212	-0.0203
792.519	-0.0163
792.826	-0.0142
793.134	-0.0129
793.441	-0.0098
793.748	-0.0086
794.055	-0.0063
794.362	-0.0114
794.669	-0.0147
794.976	-0.0155
795.283	-0.0124
795.59	-0.0105
795.897	-0.0123
796.203	-0.0145
796.51	-0.0241
796.817	-0.0264
797.123	-0.0216
797.43	-0.0149
797.736	-0.0155
798.042	-0.0198
798.349	-0.0202
798.655	-0.0134
798.961	-0.0148
799.267	-0.0141
799.573	-0.016
799.879	-0.0208
800.185	-0.019
800.491	-0.0167
800.797	-0.0082
801.103	-0.0114
801.408	-0.0174
801.714	-0.0152
802.02	-0.0105
802.325	-0.0026
802.631	-0.0095
802.936	-0.0153
803.242	-0.0163
803.547	-0.0129
803.852	-0.0159
804.157	-0.0174
804.462	-0.018
804.768	-0.0062
805.073	-0.0064
805.378	-0.0098
805.682	-0.0182
805.987	-0.0199
806.292	-0.0157
806.597	-0.0103
806.902	-0.0097
807.206	-0.0128
807.511	-0.0204
807.815	-0.0269
808.12	-0.0265
808.424	-0.0215
808.728	-0.0151
809.033	-0.0091
809.337	-0.0157
809.641	-0.015
809.945	-0.016
810.249	-0.01
810.553	-0.0122
810.857	-0.0116
811.161	-0.0138
811.465	-0.0094
811.768	-0.0157
812.072	-0.0164
812.376	-0.0208
812.679	-0.0268
812.983	-0.0237
813.286	-0.0277
813.59	-0.0186
813.893	-0.0175
814.196	-0.0133
814.499	-0.0082
814.803	-0.0115
815.106	-0.0146
815.409	-0.019
815.712	-0.0174
816.015	-0.0119
816.318	-0.0196
816.62	-0.0253
816.923	-0.0206
817.226	-0.0184
817.528	-0.0095
817.831	-0.0145
818.133	-0.0068
818.436	-0.0065
818.738	-0.0056
819.041	-0.0151
819.343	-0.0121
819.645	-0.0183
819.947	-0.0075
820.249	-0.0186
820.551	-0.0169
820.853	-0.018
821.155	-0.0197
821.457	-0.0177
821.759	-0.0245
822.061	-0.0159
822.362	-0.0132
822.664	-0.0177
822.966	-0.0179
823.267	-0.0207
823.569	-0.0112
823.87	-0.0153
824.171	-0.0148
824.473	-0.0198
824.774	-0.0152
825.075	-0.0145
825.376	-0.0128
825.677	-0.0214
825.978	-0.0227
826.279	-0.0239
826.58	-0.0173
826.881	-0.0204
827.181	-0.0118
827.482	-0.0054
827.783	-0.0024
828.083	-0.0098
828.384	-0.0245
828.684	-0.0281
828.985	-0.0288
829.285	-0.0244
829.585	-0.0216
829.885	-0.0245
830.185	-0.0294
830.486	-0.0279
830.786	-0.0129
831.086	-0.001
831.385	-0.001
831.685	-0.0152
831.985	-0.0298
832.285	-0.0304
832.585	-0.0286
832.884	-0.0133
833.184	-0.0211
833.483	-0.0267
833.783	-0.0393
834.082	-0.0361
834.381	-0.035
834.681	-0.031
834.98	-0.0196
835.279	-0.0204
835.578	-0.0216
835.877	-0.0218
836.176	-0.0158
836.475	-0.0106
836.774	-0.0173
837.072	-0.0162
837.371	-0.0031
837.67	0.0049
837.968	0.0006
838.267	-0.0115
838.565	-0.0195
838.864	-0.0177
839.162	-0.0309
839.46	-0.0367
839.759	-0.0325
840.057	-0.0226
840.355	-0.0103
840.653	-0.0116
840.951	-0.008
841.249	-0.0149
841.547	-0.0124
841.845	-0.0172
842.142	-0.0099
842.44	-0.0182
842.738	-0.0199
843.035	-0.0226
843.333	-0.0118
843.63	-0.0217
843.928	-0.0167
844.225	-0.0179
844.522	-0.0069
844.82	-0.0182
845.117	-0.0222
845.414	-0.017
845.711	-0.0119
846.008	-0.0143
846.305	-0.0188
846.602	-0.0272
846.898	-0.0235
847.195	-0.0293
847.492	-0.0168
847.788	-0.0222
848.085	-0.01
848.382	-0.0201
848.678	-0.0237
848.974	-0.0286
849.271	-0.0091
849.567	0.0046
849.863	0.0004
850.159	-0.0223
850.455	-0.0312
850.751	-0.0323
851.047	-0.016
851.343	-0.0187
851.639	-0.021
851.935	-0.0294
852.23	-0.0344
852.526	-0.0305
852.822	-0.0289
853.117	-0.011
853.413	-0.0117
853.708	-0.0367
854.003	-0.0351
854.299	-0.024
854.594	-0.0068
854.889	-0.0229
855.184	-0.0314
855.479	-0.0183
855.774	-0.0026
856.069	-0.0106
856.364	-0.0261
856.659	-0.0416
856.954	-0.021
857.248	-0.0168
857.543	0.0023
857.837	-0.0089
858.132	-0.0083
858.426	-0.0313
858.721	-0.0491
859.015	-0.059
859.309	-0.0443
859.604	-0.0261
859.898	-0.0096
860.192	-0.008
860.486	-0.0045
860.78	-0.0158
861.074	-0.0131
861.367	-0.0132
861.661	-0.0022
861.955	-0.0066
862.248	0.0002
862.542	-0.0116
862.836	-0.0114
863.129	-0.012
863.422	-0.0063
863.716	-0.0153
864.009	-0.0177
864.302	-0.027
864.595	-0.0265
864.889	-0.0444
865.182	-0.0352
865.475	-0.0419
865.767	-0.0463
866.06	-0.0499
866.353	-0.0379
866.646	-0.0175
866.938	-0.0282
867.231	-0.0372
867.524	-0.0359
867.816	-0.0015
868.109	0.0131
868.401	0.013
868.693	-0.0028
868.985	-0.0102
869.278	-0.0241
869.57	-0.0285
869.862	-0.0241
870.154	-0.0192
870.446	-0.0212
870.738	-0.0337
871.029	-0.0422
871.321	-0.0254
871.613	-0.0059
871.904	0.005
872.196	-0.0141
872.487	-0.0207
872.779	-0.0193
873.07	-0.0144
873.362	-0.0022
873.653	0.019
873.944	0.0119
874.235	-0.0141
874.526	-0.0436
874.817	-0.0297
875.108	-0.0149
875.399	-0.0044
875.69	-0.0006
875.981	-0.0244
876.271	-0.0269
876.562	-0.0213
876.853	-0.0183
877.143	-0.0245
877.434	-0.0314
877.724	-0.0467
878.014	-0.0168
878.305	-0.0258
878.595	0.0127
878.885	-0.0227
879.175	-0.0402
879.465	-0.0531
879.755	-0.0287
880.045	0.0128
880.335	0.0257
880.624	0.0317
880.914	0.0317
