Data from 6SS02MI_071717_1b_Absorbance_21-01-09-580.txt Node
Date: Tue Jul 18 21:01:09 MDT 2017
User: Tank Lab
Spectrometer: FLMS01220
Trigger mode: 0
Integration Time (sec): 1.000000E-1
Scans to average: 10
Electric dark correction enabled: true
Nonlinearity correction enabled: false
Boxcar width: 1
XAxis mode: Wavelengths
Number of Pixels in Spectrum: 2048
>>>>>Begin Spectral Data<<<<<
179.47	-0
179.856	-0
180.241	-0
180.626	-0
181.011	-0
181.396	0.7395
181.781	0.5389
182.166	-0
182.551	0.0037
182.936	-0
183.321	-0
183.706	-0.2921
184.091	0.3567
184.476	0.3932
184.86	-0
185.245	-0.1147
185.63	-0.0278
186.015	-0
186.399	-0.1151
186.784	0.3527
187.169	0.0421
187.553	-0.0464
187.938	-0.1308
188.322	0.1225
188.707	0.1611
189.091	0.1667
189.475	0.1742
189.86	0.1722
190.244	0.2277
190.629	0.2467
191.013	0.2738
191.397	0.2969
191.781	0.3597
192.165	0.4254
192.55	0.5275
192.934	0.5663
193.318	0.6075
193.702	0.6347
194.086	0.6858
194.47	0.7382
194.854	0.7543
195.238	0.776
195.622	0.8
196.006	0.8286
196.389	0.8192
196.773	0.82
197.157	0.798
197.541	0.817
197.924	0.8026
198.308	0.7929
198.692	0.7839
199.075	0.7919
199.459	0.7935
199.843	0.784
200.226	0.7494
200.61	0.7351
200.993	0.7116
201.376	0.7059
201.76	0.6981
202.143	0.7103
202.527	0.701
202.91	0.6972
203.293	0.6747
203.676	0.6692
204.059	0.6487
204.443	0.6457
204.826	0.6344
205.209	0.6216
205.592	0.6101
205.975	0.6043
206.358	0.6031
206.741	0.6006
207.124	0.5899
207.507	0.5922
207.89	0.5837
208.273	0.5836
208.655	0.5705
209.038	0.5679
209.421	0.5624
209.804	0.5659
210.186	0.5597
210.569	0.5571
210.951	0.5517
211.334	0.5493
211.717	0.5456
212.099	0.5438
212.482	0.5443
212.864	0.5392
213.246	0.5294
213.629	0.5245
214.011	0.5242
214.393	0.5243
214.776	0.5188
215.158	0.5135
215.54	0.5112
215.922	0.5098
216.305	0.5108
216.687	0.5074
217.069	0.5016
217.451	0.4977
217.833	0.4934
218.215	0.4927
218.597	0.4897
218.979	0.4896
219.361	0.4901
219.742	0.4833
220.124	0.4808
220.506	0.4755
220.888	0.4763
221.27	0.4725
221.651	0.4693
222.033	0.4652
222.415	0.4649
222.796	0.4619
223.178	0.4588
223.559	0.4538
223.941	0.4512
224.322	0.4504
224.704	0.4514
225.085	0.4493
225.466	0.4448
225.848	0.437
226.229	0.4339
226.61	0.432
226.992	0.435
227.373	0.4319
227.754	0.4304
228.135	0.4245
228.516	0.4242
228.897	0.4215
229.278	0.4179
229.659	0.4104
230.04	0.4069
230.421	0.4046
230.802	0.4035
231.183	0.4023
231.564	0.4022
231.944	0.4002
232.325	0.3946
232.706	0.3904
233.087	0.3894
233.467	0.3893
233.848	0.3887
234.229	0.3879
234.609	0.385
234.99	0.3802
235.37	0.3762
235.751	0.3754
236.131	0.3754
236.511	0.3727
236.892	0.3705
237.272	0.367
237.652	0.3655
238.033	0.3626
238.413	0.3618
238.793	0.3605
239.173	0.3603
239.553	0.3568
239.933	0.3555
240.313	0.3529
240.694	0.3522
241.074	0.3481
241.453	0.3457
241.833	0.3437
242.213	0.343
242.593	0.3423
242.973	0.3405
243.353	0.3385
243.732	0.3363
244.112	0.3348
244.492	0.3342
244.872	0.3341
245.251	0.3333
245.631	0.3329
246.01	0.329
246.39	0.3262
246.769	0.324
247.149	0.3234
247.528	0.3231
247.908	0.3208
248.287	0.3212
248.666	0.3184
249.045	0.3169
249.425	0.3153
249.804	0.3146
250.183	0.3152
250.562	0.313
250.941	0.3113
251.32	0.3076
251.699	0.3077
252.078	0.3066
252.457	0.3083
252.836	0.3061
253.215	0.3045
253.594	0.3035
253.973	0.3005
254.352	0.3013
254.731	0.3005
255.109	0.3008
255.488	0.2985
255.867	0.2951
256.245	0.2942
256.624	0.2916
257.002	0.2913
257.381	0.2885
257.759	0.2899
258.138	0.2891
258.516	0.2903
258.895	0.2893
259.273	0.2883
259.651	0.2862
260.03	0.2871
260.408	0.2853
260.786	0.2839
261.164	0.2807
261.542	0.28
261.921	0.2789
262.299	0.2767
262.677	0.2753
263.055	0.2747
263.433	0.2738
263.811	0.2743
264.188	0.2716
264.566	0.2708
264.944	0.2693
265.322	0.2704
265.7	0.2688
266.077	0.2682
266.455	0.2652
266.833	0.2639
267.21	0.2602
267.588	0.26
267.966	0.2603
268.343	0.2601
268.721	0.2605
269.098	0.2585
269.475	0.2569
269.853	0.2556
270.23	0.2546
270.607	0.2547
270.985	0.2522
271.362	0.2485
271.739	0.246
272.116	0.2439
272.494	0.2442
272.871	0.2433
273.248	0.2422
273.625	0.2403
274.002	0.2384
274.379	0.2375
274.756	0.2368
275.132	0.234
275.509	0.2319
275.886	0.2303
276.263	0.2321
276.64	0.2308
277.016	0.2295
277.393	0.2262
277.77	0.2224
278.146	0.2211
278.523	0.22
278.899	0.2221
279.276	0.2213
279.652	0.2206
280.029	0.2184
280.405	0.2168
280.782	0.2153
281.158	0.2137
281.534	0.2132
281.91	0.2117
282.287	0.2103
282.663	0.2094
283.039	0.2103
283.415	0.2091
283.791	0.2073
284.167	0.2037
284.543	0.2043
284.919	0.2024
285.295	0.2009
285.671	0.1987
286.047	0.198
286.423	0.1982
286.799	0.1973
287.174	0.1969
287.55	0.1938
287.926	0.1933
288.301	0.1909
288.677	0.1907
289.053	0.1892
289.428	0.1889
289.804	0.1879
290.179	0.1873
290.555	0.1853
290.93	0.1843
291.305	0.1818
291.681	0.1804
292.056	0.1803
292.431	0.1784
292.806	0.1786
293.182	0.1777
293.557	0.1775
293.932	0.1762
294.307	0.1734
294.682	0.1729
295.057	0.1711
295.432	0.1714
295.807	0.1686
296.182	0.1681
296.557	0.1665
296.932	0.1666
297.306	0.1652
297.681	0.1645
298.056	0.1654
298.43	0.165
298.805	0.1629
299.18	0.1585
299.554	0.1568
299.929	0.158
300.303	0.1593
300.678	0.1597
301.052	0.1574
301.427	0.156
301.801	0.1532
302.175	0.1531
302.55	0.1518
302.924	0.151
303.298	0.1481
303.672	0.1474
304.046	0.147
304.421	0.1463
304.795	0.1455
305.169	0.145
305.543	0.1445
305.917	0.1427
306.291	0.1424
306.664	0.1427
307.038	0.1428
307.412	0.1402
307.786	0.1392
308.16	0.1382
308.533	0.1375
308.907	0.1367
309.281	0.1357
309.654	0.1357
310.028	0.1355
310.401	0.1346
310.775	0.1338
311.148	0.1322
311.522	0.132
311.895	0.1306
312.268	0.1269
312.642	0.1262
313.015	0.1253
313.388	0.1257
313.761	0.1244
314.135	0.1233
314.508	0.1229
314.881	0.1222
315.254	0.1233
315.627	0.1239
316	0.1228
316.373	0.1214
316.746	0.1199
317.118	0.1194
317.491	0.1184
317.864	0.1171
318.237	0.1152
318.61	0.114
318.982	0.1131
319.355	0.114
319.727	0.1149
320.1	0.1151
320.473	0.1142
320.845	0.1119
321.218	0.1107
321.59	0.1094
321.962	0.1084
322.335	0.1072
322.707	0.1062
323.079	0.1073
323.452	0.1059
323.824	0.1067
324.196	0.1058
324.568	0.1083
324.94	0.1066
325.312	0.106
325.684	0.1043
326.056	0.1034
326.428	0.1024
326.8	0.1001
327.172	0.0998
327.544	0.0975
327.915	0.0986
328.287	0.0961
328.659	0.0965
329.031	0.0955
329.402	0.0965
329.774	0.0958
330.145	0.0945
330.517	0.0931
330.888	0.091
331.26	0.0907
331.631	0.0907
332.003	0.0915
332.374	0.091
332.745	0.0894
333.117	0.0887
333.488	0.0891
333.859	0.0896
334.23	0.0882
334.601	0.0859
334.972	0.0851
335.343	0.0863
335.714	0.0862
336.085	0.0856
336.456	0.0847
336.827	0.0838
337.198	0.084
337.569	0.0843
337.94	0.0854
338.31	0.0844
338.681	0.0827
339.052	0.0808
339.422	0.0793
339.793	0.0791
340.164	0.0793
340.534	0.0783
340.905	0.0776
341.275	0.0777
341.645	0.0785
342.016	0.0771
342.386	0.0757
342.756	0.0732
343.127	0.0737
343.497	0.0731
343.867	0.0732
344.237	0.0718
344.607	0.07
344.977	0.0711
345.347	0.0699
345.717	0.0689
346.087	0.0683
346.457	0.0692
346.827	0.0701
347.197	0.0702
347.567	0.0687
347.936	0.069
348.306	0.0687
348.676	0.069
349.046	0.0685
349.415	0.0677
349.785	0.0672
350.154	0.0664
350.524	0.0664
350.893	0.0651
351.263	0.0638
351.632	0.0627
352.001	0.0646
352.371	0.0646
352.74	0.0631
353.109	0.0612
353.478	0.063
353.847	0.0645
354.217	0.0649
354.586	0.0626
354.955	0.0626
355.324	0.0618
355.693	0.0614
356.062	0.0597
356.43	0.06
356.799	0.0606
357.168	0.0594
357.537	0.0579
357.906	0.0562
358.274	0.056
358.643	0.0547
359.011	0.0556
359.38	0.0546
359.749	0.0536
360.117	0.0512
360.486	0.0501
360.854	0.051
361.222	0.0512
361.591	0.0527
361.959	0.0512
362.327	0.0517
362.695	0.0502
363.064	0.05
363.432	0.0482
363.8	0.0483
364.168	0.0496
364.536	0.0491
364.904	0.0493
365.272	0.0483
365.64	0.0495
366.008	0.0493
366.376	0.047
366.743	0.0463
367.111	0.047
367.479	0.0474
367.847	0.0474
368.214	0.0454
368.582	0.0458
368.949	0.0472
369.317	0.0463
369.684	0.046
370.052	0.0458
370.419	0.0471
370.787	0.0468
371.154	0.0446
371.521	0.045
371.889	0.0429
372.256	0.0436
372.623	0.0403
372.99	0.0403
373.357	0.0396
373.724	0.0416
374.091	0.0414
374.458	0.0388
374.825	0.0368
375.192	0.0387
375.559	0.038
375.926	0.0385
376.293	0.0373
376.659	0.0391
377.026	0.0394
377.393	0.038
377.759	0.0374
378.126	0.0372
378.492	0.0401
378.859	0.0392
379.225	0.0376
379.592	0.0361
379.958	0.0363
380.325	0.0379
380.691	0.0349
381.057	0.0367
381.423	0.0346
381.79	0.0381
382.156	0.0371
382.522	0.0385
382.888	0.0354
383.254	0.0338
383.62	0.0319
383.986	0.0325
384.352	0.0327
384.718	0.0341
385.084	0.0361
385.449	0.0352
385.815	0.0323
386.181	0.0326
386.547	0.0317
386.912	0.0325
387.278	0.0284
387.643	0.0302
388.009	0.0307
388.374	0.0308
388.74	0.0301
389.105	0.0301
389.471	0.0312
389.836	0.0321
390.201	0.0328
390.566	0.0329
390.932	0.0332
391.297	0.0323
391.662	0.033
392.027	0.0288
392.392	0.0272
392.757	0.0253
393.122	0.0283
393.487	0.0278
393.852	0.0285
394.217	0.0276
394.582	0.0302
394.946	0.0321
395.311	0.0319
395.676	0.0333
396.04	0.0268
396.405	0.0257
396.77	0.0232
397.134	0.0268
397.499	0.0265
397.863	0.0222
398.227	0.0198
398.592	0.021
398.956	0.0258
399.32	0.028
399.685	0.0268
400.049	0.0272
400.413	0.029
400.777	0.0288
401.141	0.0292
401.505	0.0277
401.869	0.0259
402.233	0.0209
402.597	0.0191
402.961	0.0203
403.325	0.0234
403.689	0.025
404.053	0.0258
404.416	0.0206
404.78	0.0211
405.144	0.0208
405.507	0.0255
405.871	0.0217
406.234	0.0233
406.598	0.0221
406.961	0.024
407.325	0.0233
407.688	0.0216
408.051	0.0237
408.415	0.0229
408.778	0.0251
409.141	0.0231
409.504	0.0214
409.867	0.0194
410.23	0.0186
410.593	0.0174
410.956	0.0214
411.319	0.023
411.682	0.0242
412.045	0.0225
412.408	0.02
412.771	0.0213
413.134	0.0206
413.496	0.0219
413.859	0.0225
414.222	0.0219
414.584	0.0189
414.947	0.0185
415.309	0.0186
415.672	0.0211
416.034	0.0198
416.396	0.0195
416.759	0.0186
417.121	0.0175
417.483	0.0174
417.846	0.0193
418.208	0.0204
418.57	0.0201
418.932	0.0182
419.294	0.0193
419.656	0.0182
420.018	0.0197
420.38	0.0185
420.742	0.0195
421.104	0.0181
421.466	0.0156
421.827	0.0147
422.189	0.0133
422.551	0.0154
422.912	0.0152
423.274	0.0178
423.636	0.0192
423.997	0.0214
424.359	0.0201
424.72	0.0203
425.081	0.0179
425.443	0.015
425.804	0.0131
426.165	0.0125
426.527	0.0124
426.888	0.013
427.249	0.0151
427.61	0.0195
427.971	0.0159
428.332	0.0148
428.693	0.0092
429.054	0.0109
429.415	0.011
429.776	0.0151
430.137	0.0144
430.498	0.0142
430.858	0.0143
431.219	0.0181
431.58	0.0179
431.94	0.0177
432.301	0.019
432.661	0.0179
433.022	0.0156
433.382	0.0145
433.743	0.013
434.103	0.0157
434.463	0.0087
434.824	0.01
435.184	0.0098
435.544	0.0127
435.904	0.012
436.264	0.0109
436.624	0.0127
436.985	0.0135
437.345	0.0128
437.704	0.0127
438.064	0.0136
438.424	0.0116
438.784	0.0111
439.144	0.0169
439.504	0.0148
439.863	0.0131
440.223	0.004
440.583	0.0088
440.942	0.0134
441.302	0.0155
441.661	0.0137
442.021	0.0099
442.38	0.0109
442.739	0.0118
443.099	0.0135
443.458	0.0134
443.817	0.0147
444.176	0.0144
444.536	0.0132
444.895	0.0132
445.254	0.0135
445.613	0.0145
445.972	0.0123
446.331	0.0118
446.69	0.0086
447.049	0.0095
447.407	0.0085
447.766	0.01
448.125	0.0098
448.484	0.0083
448.842	0.0104
449.201	0.0102
449.559	0.0111
449.918	0.01
450.276	0.0109
450.635	0.0117
450.993	0.01
451.352	0.0101
451.71	0.0088
452.068	0.0103
452.426	0.0106
452.785	0.01
453.143	0.0112
453.501	0.0098
453.859	0.0116
454.217	0.0104
454.575	0.0117
454.933	0.0118
455.291	0.012
455.649	0.0081
456.006	0.0049
456.364	0.0069
456.722	0.0069
457.079	0.0102
457.437	0.0115
457.795	0.0143
458.152	0.0117
458.51	0.0088
458.867	0.0072
459.225	0.0101
459.582	0.0103
459.939	0.009
460.297	0.0059
460.654	0.0058
461.011	0.0068
461.368	0.0104
461.725	0.0084
462.082	0.0092
462.44	0.0101
462.797	0.0113
463.153	0.0145
463.51	0.0109
463.867	0.0132
464.224	0.0064
464.581	0.0037
464.938	0.0017
465.294	0.0046
465.651	0.007
466.008	0.0063
466.364	0.0058
466.721	0.0073
467.077	0.0076
467.434	0.0112
467.79	0.0116
468.146	0.0116
468.503	0.0141
468.859	0.0076
469.215	0.003
469.571	-0.0035
469.927	0.001
470.284	0.005
470.64	0.0115
470.996	0.0157
471.352	0.0168
471.707	0.0108
472.063	0.0072
472.419	0.0051
472.775	0.0031
473.131	0.0069
473.486	0.0075
473.842	0.0094
474.198	0.0055
474.553	0.0066
474.909	0.0083
475.264	0.0101
475.62	0.0105
475.975	0.0108
476.331	0.0115
476.686	0.0123
477.041	0.0105
477.396	0.0131
477.752	0.0141
478.107	0.015
478.462	0.0095
478.817	0.0074
479.172	0.0108
479.527	0.0117
479.882	0.0108
480.237	0.0062
480.591	0.008
480.946	0.0072
481.301	0.0086
481.656	0.0051
482.01	0.0054
482.365	0.0035
482.72	0.007
483.074	0.0087
483.429	0.0097
483.783	0.0062
484.137	0.0093
484.492	0.011
484.846	0.0124
485.2	0.0053
485.555	0.001
485.909	0.0023
486.263	0.007
486.617	0.0089
486.971	0.0094
487.325	0.0103
487.679	0.0151
488.033	0.0089
488.387	0.015
488.741	0.014
489.094	0.0091
489.448	0.0001
489.802	0.0033
490.156	0.0116
490.509	0.0056
490.863	-0.0018
491.216	-0.0008
491.57	0.0053
491.923	0.0054
492.277	0.0026
492.63	0.0024
492.983	0.0041
493.337	0.0028
493.69	0.0034
494.043	0.0019
494.396	0.0019
494.749	0.0016
495.102	0.0012
495.455	0.0018
495.808	-0.0007
496.161	0.0025
496.514	0.003
496.867	0.005
497.22	0.0031
497.572	0.0023
497.925	0.0037
498.278	0.0022
498.63	0.0089
498.983	0.0101
499.335	0.0085
499.688	-0.0008
500.04	-0.0042
500.393	-0.0045
500.745	0.0003
501.097	0.0034
501.449	0.0037
501.802	0.0027
502.154	0.002
502.506	0.0009
502.858	0.0003
503.21	-0.0014
503.562	0.002
503.914	0.0089
504.266	0.012
504.618	0.0099
504.969	0.0072
505.321	0.0017
505.673	0.0026
506.025	0.0018
506.376	0.0043
506.728	0.0004
507.079	-0.0023
507.431	-0.0029
507.782	0.0012
508.134	0.0032
508.485	0.0013
508.836	0.0004
509.188	0.0014
509.539	0.0049
509.89	0.0012
510.241	-0.0028
510.592	0.0018
510.943	0.0017
511.294	0.0036
511.645	-0.0035
511.996	-0.001
512.347	0.0006
512.698	0.0043
513.049	0.0043
513.399	0.0025
513.75	-0
514.101	0.0043
514.451	0.0039
514.802	0.005
515.152	0.002
515.503	0.0044
515.853	0.0034
516.203	0.0026
516.554	0.0004
516.904	0.0032
517.254	0.0011
517.604	0.0011
517.955	-0.0029
518.305	0.0039
518.655	0.0054
519.005	0.0088
519.355	0.0082
519.705	0.0068
520.055	0.0033
520.404	0.0018
520.754	0.0036
521.104	0.0074
521.454	0.0082
521.803	0.0062
522.153	0.0024
522.502	-0.0026
522.852	-0.0045
523.201	-0.0039
523.551	-0.0014
523.9	0.0007
524.249	0.0034
524.599	-0
524.948	-0.0003
525.297	-0.0009
525.646	-0.0008
525.995	-0.0008
526.344	-0.0031
526.694	0.0013
527.042	0.001
527.391	0.0006
527.74	0.0016
528.089	0.0021
528.438	0.0052
528.787	0.0029
529.135	0.0032
529.484	0.0039
529.833	0.0039
530.181	0.0057
530.53	0.0031
530.878	0.0007
531.227	0.0027
531.575	0.005
531.923	0.003
532.271	-0.002
532.62	-0.0035
532.968	0.0016
533.316	0.0018
533.664	0.0035
534.012	0.0042
534.36	0.007
534.708	0.0028
535.056	0.001
535.404	-0.0041
535.752	-0.0021
536.1	-0.0018
536.447	-0.0001
536.795	0.0014
537.143	0.0025
537.49	0.0016
537.838	-0.0017
538.185	-0.0013
538.533	-0.0006
538.88	0.003
539.228	-0.0002
539.575	0.0023
539.922	0.0011
540.269	0.0066
540.617	0.0027
540.964	-0.0017
541.311	-0.0041
541.658	0
542.005	0.0061
542.352	0.0024
542.699	-0.0025
543.045	-0.0076
543.392	-0.0032
543.739	-0.0018
544.086	0.0005
544.432	-0.0017
544.779	0.0022
545.126	0.0011
545.472	-0.0007
545.819	-0.0019
546.165	-0.0009
546.512	0.003
546.858	0.0053
547.204	0.0063
547.55	0.0054
547.897	0.0035
548.243	-0.0033
548.589	-0.0013
548.935	-0.0049
549.281	-0.0007
549.627	-0.0029
549.973	0.0021
550.319	0.0049
550.665	0.0072
551.01	0.002
551.356	-0.0022
551.702	-0.007
552.048	-0.0124
552.393	-0.008
552.739	-0.0027
553.084	0.0069
553.43	0.0019
553.775	-0.0025
554.12	-0.0016
554.466	0.0067
554.811	0.0076
555.156	0.0045
555.502	0.0017
555.847	-0.0005
556.192	0.0011
556.537	-0.0017
556.882	-0.0003
557.227	-0.007
557.572	-0.0024
557.917	0.0067
558.261	0.0045
558.606	-0.0017
558.951	-0.0102
559.295	-0.0099
559.64	-0.0038
559.985	-0.0037
560.329	0.0009
560.674	-0.0022
561.018	-0.0056
561.363	-0.0077
561.707	-0.0099
562.051	-0.0069
562.395	0.0031
562.74	0.0038
563.084	0.0049
563.428	0.0014
563.772	0.0026
564.116	-0.0023
564.46	-0.0049
564.804	-0.0006
565.148	-0.0037
565.492	-0.0007
565.835	-0.0002
566.179	0.0051
566.523	-0.0021
566.866	-0.0099
567.21	-0.0088
567.554	-0.0045
567.897	-0.0011
568.24	-0.0049
568.584	-0.006
568.927	-0.005
569.271	-0.0037
569.614	0.0007
569.957	0.0036
570.3	0.0087
570.643	0.0049
570.986	0.0001
571.329	0.0024
571.672	0.006
572.015	0.0048
572.358	0.0015
572.701	0.0049
573.044	0
573.387	-0.0012
573.729	0.001
574.072	0.0079
574.414	0.0088
574.757	0.0088
575.099	-0.0066
575.442	-0.0144
575.784	-0.0038
576.127	0.0085
576.469	0.0087
576.811	-0.0037
577.153	-0.0031
577.496	-0.0017
577.838	0.0009
578.18	-0.0124
578.522	-0.0141
578.864	-0.0178
579.206	0.0064
579.548	0.0072
579.889	-0.0052
580.231	0.0052
580.573	0.0189
580.915	0.0144
581.256	-0.0095
581.598	-0.0274
581.939	-0.0285
582.281	-0.0005
582.622	-0.0039
582.964	0.0007
583.305	-0.0123
583.646	0.0002
583.988	0.0386
584.329	0.024
584.67	0.0085
585.011	-0.0215
585.352	-0.0306
585.693	-0.0177
586.034	-0.0236
586.375	-0.0178
586.716	-0.0138
587.057	-0.0067
587.398	0.0111
587.738	0.022
588.079	0.0124
588.42	0.0045
588.76	-0.019
589.101	-0.0167
589.441	-0.0221
589.782	-0.0077
590.122	0.0033
590.463	0.0049
590.803	-0.0079
591.143	-0.007
591.483	-0.0133
591.823	-0.0144
592.164	-0.0208
592.504	-0.0066
592.844	-0.0001
593.184	-0.0046
593.523	-0.0149
593.863	-0.0133
594.203	-0.0048
594.543	0.0056
594.883	-0.0016
595.222	0.0044
595.562	0.0203
595.901	0.0181
596.241	0.0054
596.58	-0.0142
596.92	-0.0204
597.259	-0.0244
597.599	-0.014
597.938	0.0045
598.277	0.0075
598.616	-0.0095
598.955	-0.0162
599.295	-0.0124
599.634	0.0066
599.973	0.0129
600.312	0.0184
600.65	0.0023
600.989	-0.0017
601.328	0.0019
601.667	0.0269
602.005	0.01
602.344	-0.0002
602.683	-0.005
603.021	0.0036
603.36	-0.0064
603.698	-0.018
604.037	-0.0198
604.375	-0.0116
604.713	-0.0177
605.052	-0.0137
605.39	-0.0153
605.728	-0.0108
606.066	0.0133
606.404	0.0181
606.742	0.0124
607.08	-0.0024
607.418	-0.0133
607.756	-0.0039
608.094	0.0026
608.431	0.0093
608.769	0.0156
609.107	-0.0041
609.444	0.0033
609.782	-0.0111
610.12	0.0067
610.457	0.0004
610.794	-0.0117
611.132	-0.0171
611.469	-0.0189
611.806	-0.0116
612.144	-0.0179
612.481	-0.009
612.818	0.0023
613.155	-0.0061
613.492	-0.0137
613.829	-0.0138
614.166	0.0021
614.503	0.0042
614.84	-0.0024
615.176	-0.0051
615.513	-0.0009
615.85	-0.0007
616.187	0.0035
616.523	-0.0053
616.86	-0.0065
617.196	0.0017
617.533	0.0222
617.869	0.0157
618.205	-0.0024
618.542	-0.0219
618.878	-0.0282
619.214	-0.0142
619.55	-0.0113
619.886	-0.0065
620.222	-0.0205
620.558	-0.0129
620.894	0.0015
621.23	0.0021
621.566	-0.0052
621.902	-0.0123
622.238	-0.0152
622.573	0.0022
622.909	-0.0076
623.244	-0.0018
623.58	-0.0231
623.916	-0.0195
624.251	-0.0032
624.586	0.0192
624.922	0.0193
625.257	-0.0047
625.592	-0.0162
625.927	-0.012
626.263	-0.0061
626.598	-0.0053
626.933	-0.0045
627.268	0.0009
627.603	-0.0098
627.938	-0.0179
628.272	-0.0125
628.607	-0.0083
628.942	-0.0057
629.277	-0.0129
629.611	-0.0029
629.946	0.0086
630.281	0.0012
630.615	-0.0012
630.949	-0.0174
631.284	-0.013
631.618	-0.0085
631.953	0.0047
632.287	0.0057
632.621	-0.0079
632.955	-0.0157
633.289	-0.0158
633.623	-0.01
633.957	-0.0078
634.291	-0.0109
634.625	-0.0064
634.959	-0.0123
635.293	-0.0026
635.627	-0.004
635.96	0
636.294	-0.0097
636.627	-0.0064
636.961	0.0023
637.294	0.0026
637.628	-0.0066
637.961	-0.0126
638.295	-0.0074
638.628	-0.0009
638.961	-0.0014
639.294	-0.0015
639.628	-0.0077
639.961	-0.0131
640.294	-0.0141
640.627	-0.0104
640.96	-0.0009
641.293	0.0036
641.625	0.0029
641.958	-0.0027
642.291	-0.0129
642.624	-0.0102
642.956	-0.0088
643.289	-0.004
643.621	-0.0025
643.954	-0.0027
644.286	-0.001
644.619	-0.0051
644.951	-0.0029
645.283	-0.0062
645.616	-0.0035
645.948	-0.004
646.28	-0.0015
646.612	-0.0008
646.944	-0.0038
647.276	-0.0069
647.608	-0.0049
647.94	-0.0032
648.272	-0.0016
648.603	-0.0049
648.935	-0.004
649.267	-0.0015
649.598	-0.0019
649.93	-0.0025
650.261	-0.0032
650.593	0.001
650.924	0.0116
651.256	0.0123
651.587	0.0052
651.918	-0.0005
652.25	-0.0056
652.581	-0.0074
652.912	-0.0164
653.243	-0.0165
653.574	-0.011
653.905	-0.0063
654.236	-0.0083
654.567	-0.0084
654.897	-0.008
655.228	-0.0065
655.559	-0.0031
655.89	0.0051
656.22	0.0018
656.551	-0.0074
656.881	-0.0181
657.212	-0.0115
657.542	-0.0042
657.872	0.0064
658.203	0.0143
658.533	0.1371
658.863	0.0783
659.193	0.0167
659.523	-0.0463
659.853	-0.1114
660.183	-0.0649
660.513	-0.031
660.843	-0.0189
661.173	-0.0129
661.503	-0.012
661.833	-0.0067
662.162	-0.005
662.492	-0.005
662.822	-0.0086
663.151	-0.0126
663.481	-0.0092
663.81	-0.0036
664.139	0.0023
664.469	0.0001
664.798	-0.0046
665.127	-0.0081
665.456	-0.0089
665.785	-0.0057
666.114	-0.0082
666.443	-0.0067
666.772	-0.0082
667.101	-0.0062
667.43	-0.0019
667.759	-0.0013
668.088	-0.0002
668.416	-0.008
668.745	-0.0086
669.074	-0.0135
669.402	-0.0077
669.731	-0.007
670.059	0.0015
670.388	-0.0061
670.716	-0.006
671.044	-0.0055
671.372	-0.0029
671.701	-0.0012
672.029	0.0005
672.357	0.002
672.685	0.002
673.013	-0.0018
673.341	-0.0056
673.669	-0.0126
673.996	-0.0117
674.324	0.007
674.652	0.0103
674.98	0.0044
675.307	-0.0058
675.635	-0.0112
675.962	-0.0082
676.29	-0.015
676.617	-0.0129
676.945	-0.0132
677.272	-0.0125
677.599	-0.0074
677.926	-0.0076
678.253	-0.0068
678.581	-0.0111
678.908	-0.0072
679.235	0.0039
679.561	-0.0028
679.888	-0.011
680.215	-0.0174
680.542	0.0017
680.869	-0.0002
681.195	-0.0073
681.522	-0.0152
681.849	-0.0081
682.175	0.0032
682.502	0.0077
682.828	0.0017
683.154	-0.005
683.481	-0.0106
683.807	-0.0127
684.133	-0.0019
684.459	-0.0016
684.785	0.0056
685.111	-0.009
685.437	-0.009
685.763	-0.0156
686.089	-0.0074
686.415	-0.0033
686.741	-0.0024
687.067	0.0017
687.392	-0
687.718	0.0055
688.043	0.0039
688.369	0.0033
688.694	-0.0012
689.02	-0.0073
689.345	-0.0154
689.67	-0.0119
689.996	-0.0073
690.321	-0.0003
690.646	-0.0035
690.971	-0.0032
691.296	-0.0012
691.621	-0.0012
691.946	-0.0013
692.271	0.0019
692.596	0.0015
692.921	-0.0049
693.245	-0.0147
693.57	-0.0079
693.895	0.0054
694.219	0.011
694.544	-0.0005
694.868	-0.0146
695.193	-0.0154
695.517	-0.007
695.841	-0.0031
696.166	-0.0064
696.49	-0.0085
696.814	-0.0101
697.138	-0.0077
697.462	-0.0063
697.786	-0.001
698.11	0.0068
698.434	-0.001
698.758	-0.0084
699.081	-0.0214
699.405	-0.0122
699.729	0.0149
700.052	0.0156
700.376	0.0055
700.7	-0.0145
701.023	-0.0188
701.346	-0.0137
701.67	-0.0121
701.993	-0.0127
702.316	-0.0091
702.639	-0.0028
702.963	-0.0012
703.286	-0.0058
703.609	-0.0033
703.932	-0.0041
704.255	-0.0071
704.578	-0.0102
704.9	-0.0045
705.223	0.0016
705.546	-0.0012
705.868	-0.0088
706.191	-0.0135
706.514	-0.0184
706.836	-0.0158
707.159	-0.0082
707.481	-0.0051
707.803	-0.0055
708.126	-0.0056
708.448	-0.0022
708.77	0.0039
709.092	0.0006
709.414	0.0091
709.736	0.0092
710.058	0.0077
710.38	-0.0051
710.702	-0.0107
711.024	-0.0154
711.345	-0.0162
711.667	-0.0157
711.989	-0.0136
712.31	-0.0096
712.632	-0.008
712.953	-0.0077
713.275	-0.005
713.596	-0.0026
713.917	-0.004
714.239	-0.0104
714.56	-0.0126
714.881	-0.0066
715.202	-0.0017
715.523	0.0077
715.844	0.0004
716.165	0.0027
716.486	-0.0064
716.807	-0.005
717.128	-0.0077
717.448	-0.0104
717.769	-0.0126
718.09	-0.0125
718.41	-0.0121
718.731	-0.0117
719.051	-0.0156
719.372	-0.0154
719.692	-0.0054
720.012	0.0025
720.332	0.0026
720.653	0.0032
720.973	0.0102
721.293	0.0029
721.613	-0.0064
721.933	-0.0183
722.253	-0.0101
722.573	-0.012
722.892	-0.0106
723.212	-0.0104
723.532	-0.0038
723.851	-0.0047
724.171	-0.0091
724.491	-0.0072
724.81	-0.0054
725.129	-0.0012
725.449	-0.0061
725.768	-0.0056
726.087	-0.0034
726.407	-0.0028
726.726	-0.0086
727.045	-0.0166
727.364	-0.0136
727.683	-0.009
728.002	0.0043
728.321	-0
728.64	-0.0027
728.958	-0.0107
729.277	-0.0084
729.596	-0.0098
729.914	-0.008
730.233	-0.0029
730.551	0.0071
730.87	0.0043
731.188	0.0011
731.507	-0.0089
731.825	-0.0103
732.143	-0.013
732.461	-0.0061
732.779	-0.0064
733.097	-0.0045
733.415	0.0016
733.733	0.0113
734.051	0.0011
734.369	-0.0084
734.687	-0.0221
735.005	-0.0207
735.322	-0.0175
735.64	-0.0048
735.957	-0.0005
736.275	-0.0042
736.592	-0.0063
736.91	-0.0073
737.227	-0.0022
737.544	-0.0118
737.862	-0.0094
738.179	-0.0107
738.496	-0.0026
738.813	-0.0075
739.13	-0.0175
739.447	-0.0191
739.764	-0.0087
740.081	-0.0019
740.398	-0.0061
740.714	-0.01
741.031	-0.0104
741.348	-0.0049
741.664	-0.0001
741.981	0.0114
742.297	0.0006
742.614	-0.0128
742.93	-0.0283
743.246	-0.0205
743.563	-0.008
743.879	-0.0007
744.195	-0.0011
744.511	-0.0019
744.827	-0.0065
745.143	-0.0016
745.459	-0.0009
745.775	-0.0015
746.091	-0.0089
746.406	-0.0141
746.722	-0.0172
747.038	-0.0126
747.353	-0.0071
747.669	-0.0007
747.984	-0.0042
748.3	-0.0055
748.615	-0.0041
748.93	-0.0022
749.246	-0.0082
749.561	-0.0103
749.876	-0.008
750.191	-0.0056
750.506	-0.0066
750.821	-0.0102
751.136	-0.0075
751.451	-0.0012
751.766	-0.0014
752.08	0.0045
752.395	-0.0003
752.71	-0.0008
753.024	-0.0079
753.339	-0.008
753.653	-0.0083
753.968	-0.0039
754.282	0.0005
754.596	0.002
754.911	-0.0049
755.225	-0.0056
755.539	-0.0099
755.853	-0.0103
756.167	-0.0092
756.481	-0.0067
756.795	-0.0068
757.109	-0.0127
757.423	-0.0089
757.736	-0.0052
758.05	-0.0036
758.364	-0.0077
758.677	-0.0144
758.991	-0.0174
759.304	-0.0092
759.618	0.004
759.931	0.004
760.244	0.0077
760.558	-0.005
760.871	-0.0082
761.184	-0.0265
761.497	-0.028
761.81	-0.0202
762.123	-0.0048
762.436	0.0021
762.749	-0.0015
763.062	-0.0045
763.374	-0.0003
763.687	-0.0036
764	-0.0042
764.312	-0.0169
764.625	-0.0188
764.937	-0.024
765.25	-0.0162
765.562	-0.0038
765.874	-0.0055
766.186	-0.0043
766.499	-0.0143
766.811	-0.0107
767.123	-0.001
767.435	0.0027
767.747	0.0034
768.059	-0.0092
768.37	-0.0115
768.682	-0.0169
768.994	-0.0189
769.306	-0.0209
769.617	-0.0163
769.929	-0.0121
770.24	-0.0096
770.552	-0.0067
770.863	-0.0023
771.174	-0.0032
771.486	-0.005
771.797	-0.0096
772.108	-0.0166
772.419	-0.0258
772.73	-0.0205
773.041	-0.0142
773.352	-0.007
773.663	-0.0131
773.974	-0.0084
774.285	-0.0127
774.595	-0.0076
774.906	-0.0087
775.217	0.0009
775.527	-0.0038
775.838	-0.007
776.148	-0.0067
776.458	-0.0074
776.769	-0.0053
777.079	-0.0089
777.389	-0.0098
777.699	-0.0098
778.009	-0.0109
778.319	-0.006
778.629	-0.0143
778.939	-0.0138
779.249	-0.0151
779.559	-0.0096
779.869	-0.0141
780.178	-0.0165
780.488	-0.0175
780.798	-0.0132
781.107	-0.0063
781.417	0.0014
781.726	0
782.035	-0.0012
782.345	-0.0081
782.654	-0.0072
782.963	-0.0088
783.272	-0.0027
783.581	0.0026
783.89	0.0087
784.199	-0.0003
784.508	-0.0072
784.817	-0.0188
785.126	-0.0139
785.434	-0.0099
785.743	-0.0099
786.052	-0.0073
786.36	-0.0123
786.669	-0.0114
786.977	-0.0158
787.285	-0.0114
787.594	-0.0046
787.902	-0.0009
788.21	0.0006
788.518	0.0014
788.826	-0.0002
789.135	-0.0043
789.442	-0.0149
789.75	-0.0152
790.058	-0.0145
790.366	-0.0101
790.674	-0.0075
790.981	-0.0033
791.289	0.0013
791.597	-0.0062
791.904	-0.0082
792.212	-0.0107
792.519	-0.0091
792.826	-0.0025
793.134	-0.0049
793.441	-0.0007
793.748	-0.003
794.055	0.0046
794.362	0.0055
794.669	-0.007
794.976	-0.0123
795.283	-0.019
795.59	-0.0072
795.897	-0.0061
796.203	-0.0024
796.51	0.0107
796.817	0.0172
797.123	0.0055
797.43	-0.0136
797.736	-0.0212
798.042	-0.0168
798.349	-0.0127
798.655	-0.022
798.961	-0.0127
799.267	-0.0089
799.573	0.0012
799.879	-0.0008
800.185	-0.0013
800.491	-0.004
800.797	-0.0079
801.103	-0.0075
801.408	-0.0039
801.714	0.003
802.02	-0.0013
802.325	-0.0028
802.631	-0.0106
802.936	-0.0071
803.242	-0.0094
803.547	-0.0116
803.852	-0.0125
804.157	-0.0145
804.462	-0.0126
804.768	-0.0183
805.073	-0.0112
805.378	-0.0081
805.682	-0.0002
805.987	-0.001
806.292	-0.004
806.597	-0.0085
806.902	-0.0078
807.206	-0.0076
807.511	-0.0076
807.815	-0.0124
808.12	-0.0021
808.424	0.0041
808.728	0.0084
809.033	0.0059
809.337	-0.0029
809.641	-0.0096
809.945	-0.0059
810.249	0.0008
810.553	-0.0002
810.857	-0.0073
811.161	-0.0131
811.465	-0.0079
811.768	-0.0133
812.072	-0.0092
812.376	-0.0094
812.679	0.0016
812.983	0.0012
813.286	0.0025
813.59	-0.003
813.893	-0.0003
814.196	-0.0078
814.499	-0.0053
814.803	-0.0114
815.106	-0.0085
815.409	-0.0167
815.712	-0.0071
816.015	-0.001
816.318	0.008
816.62	0.0036
816.923	-0.0099
817.226	-0.0205
817.528	-0.0243
817.831	-0.0156
818.133	-0.0153
818.436	-0.0102
818.738	-0.0064
819.041	0.0011
819.343	-0.0001
819.645	0.0042
819.947	0.0097
820.249	0.0062
820.551	-0.004
820.853	-0.0116
821.155	-0.0145
821.457	-0.0156
821.759	-0.0161
822.061	-0.0135
822.362	-0.0152
822.664	-0.0131
822.966	-0.0068
823.267	0.0053
823.569	0.0057
823.87	-0.0123
824.171	-0.0239
824.473	-0.028
824.774	-0.0167
825.075	-0.0112
825.376	-0.0113
825.677	-0.006
825.978	-0.0008
826.279	-0.0092
826.58	-0.0181
826.881	-0.0247
827.181	-0.0188
827.482	-0.0153
827.783	-0.0154
828.083	-0.0074
828.384	-0.001
828.684	-0.0092
828.985	-0.0139
829.285	-0.0133
829.585	-0.0056
829.885	-0.0013
830.185	-0.0049
830.486	-0.0065
830.786	-0.0165
831.086	-0.0248
831.385	-0.0213
831.685	-0.0103
831.985	-0.007
832.285	-0.0152
832.585	-0.0206
832.884	-0.0225
833.184	-0.0236
833.483	-0.0324
833.783	-0.0256
834.082	-0.0153
834.381	-0.0051
834.681	-0.0097
834.98	-0.0189
835.279	-0.0281
835.578	-0.0173
835.877	-0.0137
836.176	-0.0116
836.475	-0.0178
836.774	-0.0143
837.072	-0.0032
837.371	0.0039
837.67	-0.0041
837.968	-0.0083
838.267	-0.0181
838.565	-0.0135
838.864	-0.0159
839.162	-0.0187
839.46	-0.0235
839.759	-0.0171
840.057	-0.018
840.355	-0.0032
840.653	-0.0069
840.951	-0.0097
841.249	-0.0258
841.547	-0.0321
841.845	-0.0266
842.142	-0.0078
842.44	-0.0003
842.738	0.0015
843.035	-0.0094
843.333	-0.0176
843.63	-0.0246
843.928	-0.018
844.225	-0.0196
844.522	-0.0048
844.82	-0.0144
845.117	-0.0114
845.414	-0.0051
845.711	-0.0045
846.008	-0.0006
846.305	-0.0128
846.602	-0.006
846.898	-0.0088
847.195	-0.0159
847.492	-0.0227
847.788	-0.009
848.085	-0.0153
848.382	-0.0133
848.678	-0.026
848.974	-0.0139
849.271	-0.0162
849.567	-0.0239
849.863	-0.0327
850.159	-0.0186
850.455	-0.0028
850.751	0.0025
851.047	-0.0061
851.343	-0.0066
851.639	-0.0023
851.935	-0.0039
852.23	-0.0078
852.526	-0.0262
852.822	-0.0192
853.117	-0.0173
853.413	-0.0072
853.708	-0.0175
854.003	-0.0193
854.299	-0.0267
854.594	-0.0146
854.889	-0.0117
855.184	-0.0045
855.479	-0.0125
855.774	-0.0078
856.069	-0.0159
856.364	-0.0169
856.659	-0.0151
856.954	0.0001
857.248	-0.0036
857.543	-0.0294
857.837	-0.0444
858.132	-0.0328
858.426	-0.0189
858.721	-0.0216
859.015	-0.0306
859.309	-0.0248
859.604	-0.0184
859.898	-0.0196
860.192	-0.0253
860.486	-0.0254
860.78	-0.0415
861.074	-0.0398
861.367	-0.0561
861.661	-0.0239
861.955	-0.0189
862.248	0.0079
862.542	-0.0248
862.836	-0.0408
863.129	-0.0377
863.422	-0.0272
863.716	-0.0164
864.009	-0.04
864.302	-0.0346
864.595	-0.0429
864.889	-0.0118
865.182	-0.0106
865.475	-0.0003
865.767	-0.0234
866.06	-0.0164
866.353	-0.035
866.646	-0.0194
866.938	-0.0192
867.231	-0.0116
867.524	-0.0018
867.816	0.0007
868.109	0.0044
868.401	-0.0237
868.693	-0.0288
868.985	-0.0178
869.278	-0.0066
869.57	-0.0147
869.862	-0.0439
870.154	-0.0485
870.446	-0.008
870.738	-0.0034
871.029	0.0005
871.321	-0.029
871.613	-0.0164
871.904	-0.0536
872.196	-0.0603
872.487	-0.06
872.779	-0.026
873.07	-0.0274
873.362	-0.0373
873.653	-0.0474
873.944	-0.0209
874.235	-0.0165
874.526	0.0194
874.817	-0.011
875.108	-0.035
875.399	-0.0415
875.69	-0.0266
875.981	-0.0018
876.271	0.01
876.562	0.0049
876.853	0.0142
877.143	-0.0051
877.434	-0.0038
877.724	0.0044
878.014	0.0003
878.305	0.0105
878.595	-0.0154
878.885	-0.0199
879.175	-0.0086
879.465	0.0098
879.755	0.0233
880.045	0.0217
880.335	0.0342
880.624	0.0392
880.914	0.0392
