Data from 7SS03MI_073017_1a_Absorbance_17-09-56-582.txt Node
Date: Wed Aug 02 17:09:56 MDT 2017
User: Tank Lab
Spectrometer: FLMS01220
Trigger mode: 0
Integration Time (sec): 1.000000E-1
Scans to average: 10
Electric dark correction enabled: true
Nonlinearity correction enabled: false
Boxcar width: 1
XAxis mode: Wavelengths
Number of Pixels in Spectrum: 2048
>>>>>Begin Spectral Data<<<<<
179.47	0.1772
179.856	0.1772
180.241	-1.048
180.626	-0
181.011	-0
181.396	-0
181.781	-0.8128
182.166	-0
182.551	-0
182.936	-0
183.321	-1.352
183.706	-0.2159
184.091	-0.186
184.476	-0
184.86	0.0384
185.245	-0.3358
185.63	-0
186.015	-0.4055
186.399	-0.3113
186.784	-0.8848
187.169	-0
187.553	-0
187.938	1.0273
188.322	0.2616
188.707	0.2299
189.091	0.1963
189.475	0.1973
189.86	0.2013
190.244	0.2171
190.629	0.2564
191.013	0.2732
191.397	0.309
191.781	0.3558
192.165	0.4504
192.55	0.5192
192.934	0.5545
193.318	0.5662
193.702	0.5755
194.086	0.6212
194.47	0.6361
194.854	0.6531
195.238	0.6664
195.622	0.6718
196.006	0.6955
196.389	0.7028
196.773	0.7079
197.157	0.728
197.541	0.7479
197.924	0.7585
198.308	0.7452
198.692	0.7329
199.075	0.7119
199.459	0.6946
199.843	0.6667
200.226	0.6654
200.61	0.6636
200.993	0.6754
201.376	0.6688
201.76	0.6565
202.143	0.6306
202.527	0.6374
202.91	0.6397
203.293	0.644
203.676	0.6256
204.059	0.6163
204.443	0.6063
204.826	0.5988
205.209	0.588
205.592	0.589
205.975	0.593
206.358	0.5907
206.741	0.5824
207.124	0.5786
207.507	0.5746
207.89	0.5701
208.273	0.5605
208.655	0.5611
209.038	0.5588
209.421	0.5573
209.804	0.5522
210.186	0.5494
210.569	0.5451
210.951	0.5401
211.334	0.5416
211.717	0.5406
212.099	0.541
212.482	0.5346
212.864	0.5373
213.246	0.5344
213.629	0.5317
214.011	0.5224
214.393	0.5196
214.776	0.5199
215.158	0.5196
215.54	0.5179
215.922	0.514
216.305	0.5092
216.687	0.5067
217.069	0.5026
217.451	0.5041
217.833	0.4983
218.215	0.4957
218.597	0.4944
218.979	0.4942
219.361	0.4899
219.742	0.4861
220.124	0.4825
220.506	0.4804
220.888	0.473
221.27	0.4697
221.651	0.4683
222.033	0.4715
222.415	0.4702
222.796	0.4667
223.178	0.4615
223.559	0.4596
223.941	0.459
224.322	0.4561
224.704	0.4552
225.085	0.4524
225.466	0.4505
225.848	0.4454
226.229	0.444
226.61	0.4416
226.992	0.437
227.373	0.4313
227.754	0.4256
228.135	0.4244
228.516	0.4254
228.897	0.4257
229.278	0.4233
229.659	0.4175
230.04	0.4142
230.421	0.4139
230.802	0.4148
231.183	0.4154
231.564	0.4128
231.944	0.4107
232.325	0.4082
232.706	0.4057
233.087	0.4033
233.467	0.4007
233.848	0.3991
234.229	0.3948
234.609	0.3921
234.99	0.3888
235.37	0.3862
235.751	0.3854
236.131	0.384
236.511	0.3838
236.892	0.3817
237.272	0.3782
237.652	0.3753
238.033	0.3748
238.413	0.3745
238.793	0.3748
239.173	0.3709
239.553	0.3679
239.933	0.3634
240.313	0.3614
240.694	0.3617
241.074	0.3602
241.453	0.3576
241.833	0.3577
242.213	0.3577
242.593	0.3557
242.973	0.3522
243.353	0.3494
243.732	0.3495
244.112	0.3446
244.492	0.3433
244.872	0.3399
245.251	0.3428
245.631	0.3431
246.01	0.3414
246.39	0.3402
246.769	0.3383
247.149	0.3379
247.528	0.3358
247.908	0.3346
248.287	0.3354
248.666	0.3322
249.045	0.3291
249.425	0.3252
249.804	0.3259
250.183	0.3266
250.562	0.327
250.941	0.3259
251.32	0.3231
251.699	0.3218
252.078	0.3208
252.457	0.3201
252.836	0.3198
253.215	0.3178
253.594	0.3192
253.973	0.3167
254.352	0.3158
254.731	0.3137
255.109	0.3133
255.488	0.3113
255.867	0.3085
256.245	0.3063
256.624	0.3068
257.002	0.3078
257.381	0.3089
257.759	0.3082
258.138	0.3064
258.516	0.3034
258.895	0.3013
259.273	0.2994
259.651	0.2994
260.03	0.2983
260.408	0.2992
260.786	0.2976
261.164	0.2974
261.542	0.294
261.921	0.2915
262.299	0.2902
262.677	0.2902
263.055	0.2919
263.433	0.2911
263.811	0.2898
264.188	0.2879
264.566	0.2866
264.944	0.2855
265.322	0.2828
265.7	0.2811
266.077	0.2804
266.455	0.279
266.833	0.2766
267.21	0.2751
267.588	0.2762
267.966	0.2741
268.343	0.2722
268.721	0.2702
269.098	0.2698
269.475	0.2682
269.853	0.267
270.23	0.2662
270.607	0.2668
270.985	0.2637
271.362	0.2633
271.739	0.2592
272.116	0.2596
272.494	0.2577
272.871	0.2583
273.248	0.2558
273.625	0.2545
274.002	0.2539
274.379	0.254
274.756	0.2511
275.132	0.2494
275.509	0.2469
275.886	0.2476
276.263	0.2478
276.64	0.2456
277.016	0.2445
277.393	0.2425
277.77	0.2421
278.146	0.2403
278.523	0.2386
278.899	0.238
279.276	0.2375
279.652	0.2349
280.029	0.2336
280.405	0.2327
280.782	0.2311
281.158	0.2311
281.534	0.2295
281.91	0.2293
282.287	0.2272
282.663	0.2265
283.039	0.2257
283.415	0.2248
283.791	0.2222
284.167	0.2216
284.543	0.2213
284.919	0.2181
285.295	0.2157
285.671	0.2124
286.047	0.2125
286.423	0.2115
286.799	0.2114
287.174	0.2124
287.55	0.2115
287.926	0.2097
288.301	0.2076
288.677	0.2057
289.053	0.2049
289.428	0.2027
289.804	0.2024
290.179	0.2012
290.555	0.2
290.93	0.1979
291.305	0.1962
291.681	0.1958
292.056	0.195
292.431	0.1944
292.806	0.1928
293.182	0.1916
293.557	0.1908
293.932	0.1893
294.307	0.1877
294.682	0.1863
295.057	0.1844
295.432	0.1849
295.807	0.1834
296.182	0.1847
296.557	0.1827
296.932	0.1819
297.306	0.18
297.681	0.1784
298.056	0.1769
298.43	0.1762
298.805	0.1769
299.18	0.1777
299.554	0.1772
299.929	0.1759
300.303	0.175
300.678	0.1739
301.052	0.1734
301.427	0.1708
301.801	0.1698
302.175	0.168
302.55	0.1689
302.924	0.1685
303.298	0.1668
303.672	0.1657
304.046	0.1638
304.421	0.163
304.795	0.1625
305.169	0.1616
305.543	0.1637
305.917	0.1626
306.291	0.1615
306.664	0.1592
307.038	0.1576
307.412	0.1576
307.786	0.1566
308.16	0.1555
308.533	0.1537
308.907	0.1527
309.281	0.1508
309.654	0.1512
310.028	0.1503
310.401	0.1497
310.775	0.148
311.148	0.1476
311.522	0.1477
311.895	0.1486
312.268	0.1453
312.642	0.1438
313.015	0.1413
313.388	0.1436
313.761	0.1423
314.135	0.1403
314.508	0.1376
314.881	0.1368
315.254	0.1376
315.627	0.1382
316	0.138
316.373	0.138
316.746	0.1361
317.118	0.1342
317.491	0.1328
317.864	0.1333
318.237	0.1339
318.61	0.1325
318.982	0.1313
319.355	0.1314
319.727	0.13
320.1	0.1289
320.473	0.1278
320.845	0.1279
321.218	0.1283
321.59	0.1273
321.962	0.1252
322.335	0.1233
322.707	0.122
323.079	0.1229
323.452	0.1223
323.824	0.1216
324.196	0.1204
324.568	0.1179
324.94	0.1181
325.312	0.118
325.684	0.1192
326.056	0.1176
326.428	0.1176
326.8	0.1144
327.172	0.1135
327.544	0.1118
327.915	0.1127
328.287	0.112
328.659	0.1099
329.031	0.1093
329.402	0.108
329.774	0.1079
330.145	0.1067
330.517	0.1058
330.888	0.1051
331.26	0.1048
331.631	0.1047
332.003	0.1043
332.374	0.1032
332.745	0.1038
333.117	0.1026
333.488	0.1009
333.859	0.0993
334.23	0.1005
334.601	0.1021
334.972	0.102
335.343	0.0991
335.714	0.0988
336.085	0.0972
336.456	0.0991
336.827	0.0967
337.198	0.0959
337.569	0.0939
337.94	0.0915
338.31	0.0915
338.681	0.0913
339.052	0.0935
339.422	0.0948
339.793	0.094
340.164	0.0939
340.534	0.091
340.905	0.0901
341.275	0.0904
341.645	0.0917
342.016	0.0903
342.386	0.0897
342.756	0.0886
343.127	0.0882
343.497	0.087
343.867	0.0864
344.237	0.0854
344.607	0.0856
344.977	0.0861
345.347	0.0865
345.717	0.0841
346.087	0.0821
346.457	0.082
346.827	0.0816
347.197	0.0808
347.567	0.081
347.936	0.0801
348.306	0.0792
348.676	0.0784
349.046	0.0784
349.415	0.0793
349.785	0.0778
350.154	0.0786
350.524	0.077
350.893	0.0766
351.263	0.0745
351.632	0.0739
352.001	0.0739
352.371	0.0734
352.74	0.0721
353.109	0.0719
353.478	0.0708
353.847	0.0708
354.217	0.0701
354.586	0.0723
354.955	0.0732
355.324	0.0732
355.693	0.0721
356.062	0.0712
356.43	0.0695
356.799	0.0692
357.168	0.0678
357.537	0.0664
357.906	0.0652
358.274	0.0671
358.643	0.0691
359.011	0.0676
359.38	0.0657
359.749	0.0641
360.117	0.0665
360.486	0.0674
360.854	0.0671
361.222	0.0649
361.591	0.0641
361.959	0.0633
362.327	0.063
362.695	0.0615
363.064	0.0617
363.432	0.0619
363.8	0.0633
364.168	0.063
364.536	0.0628
364.904	0.0617
365.272	0.0602
365.64	0.0592
366.008	0.0568
366.376	0.0605
366.743	0.0597
367.111	0.0607
367.479	0.0579
367.847	0.0585
368.214	0.0585
368.582	0.0579
368.949	0.0562
369.317	0.0557
369.684	0.0553
370.052	0.0551
370.419	0.0545
370.787	0.0539
371.154	0.0536
371.521	0.0533
371.889	0.0518
372.256	0.0498
372.623	0.0469
372.99	0.0464
373.357	0.0469
373.724	0.0489
374.091	0.05
374.458	0.0499
374.825	0.0491
375.192	0.0501
375.559	0.0498
375.926	0.0477
376.293	0.0458
376.659	0.0455
377.026	0.0471
377.393	0.0459
377.759	0.0463
378.126	0.0446
378.492	0.0465
378.859	0.0444
379.225	0.0455
379.592	0.0436
379.958	0.0468
380.325	0.046
380.691	0.0463
381.057	0.0431
381.423	0.0423
381.79	0.0424
382.156	0.0418
382.522	0.0433
382.888	0.0427
383.254	0.0439
383.62	0.0434
383.986	0.0434
384.352	0.0416
384.718	0.0421
385.084	0.0407
385.449	0.0416
385.815	0.0411
386.181	0.0408
386.547	0.0394
386.912	0.0375
387.278	0.041
387.643	0.0437
388.009	0.0443
388.374	0.0394
388.74	0.0392
389.105	0.0375
389.471	0.0401
389.836	0.0384
390.201	0.0402
390.566	0.04
390.932	0.0426
391.297	0.0407
391.662	0.0387
392.027	0.0363
392.392	0.0361
392.757	0.0346
393.122	0.0334
393.487	0.0343
393.852	0.0362
394.217	0.036
394.582	0.0357
394.946	0.0365
395.311	0.0373
395.676	0.0383
396.04	0.0349
396.405	0.0333
396.77	0.0301
397.134	0.0299
397.499	0.0314
397.863	0.0314
398.227	0.0321
398.592	0.0319
398.956	0.0308
399.32	0.0314
399.685	0.0306
400.049	0.0318
400.413	0.0308
400.777	0.0308
401.141	0.0307
401.505	0.0301
401.869	0.0292
402.233	0.0285
402.597	0.0293
402.961	0.0315
403.325	0.0321
403.689	0.0333
404.053	0.0329
404.416	0.0344
404.78	0.0333
405.144	0.0322
405.507	0.0297
405.871	0.0288
406.234	0.028
406.598	0.0289
406.961	0.0288
407.325	0.0279
407.688	0.0286
408.051	0.0285
408.415	0.0286
408.778	0.0283
409.141	0.031
409.504	0.0311
409.867	0.0302
410.23	0.0267
410.593	0.0268
410.956	0.0246
411.319	0.023
411.682	0.0238
412.045	0.0251
412.408	0.0259
412.771	0.0248
413.134	0.026
413.496	0.0259
413.859	0.0253
414.222	0.0253
414.584	0.0281
414.947	0.0273
415.309	0.0264
415.672	0.0235
416.034	0.0225
416.396	0.0226
416.759	0.0226
417.121	0.0248
417.483	0.024
417.846	0.0244
418.208	0.023
418.57	0.0223
418.932	0.0232
419.294	0.0233
419.656	0.0231
420.018	0.0227
420.38	0.025
420.742	0.0248
421.104	0.0267
421.466	0.0257
421.827	0.0279
422.189	0.0252
422.551	0.0221
422.912	0.0187
423.274	0.0202
423.636	0.0219
423.997	0.0251
424.359	0.025
424.72	0.0244
425.081	0.0228
425.443	0.0199
425.804	0.0189
426.165	0.0172
426.527	0.0198
426.888	0.0212
427.249	0.025
427.61	0.0238
427.971	0.0249
428.332	0.0224
428.693	0.0215
429.054	0.0188
429.415	0.0187
429.776	0.0204
430.137	0.021
430.498	0.0212
430.858	0.0201
431.219	0.0211
431.58	0.0201
431.94	0.0218
432.301	0.0217
432.661	0.0201
433.022	0.0192
433.382	0.0189
433.743	0.0208
434.103	0.0169
434.463	0.0155
434.824	0.0148
435.184	0.018
435.544	0.0175
435.904	0.0171
436.264	0.0173
436.624	0.0206
436.985	0.0208
437.345	0.0196
437.704	0.0166
438.064	0.0144
438.424	0.0129
438.784	0.0144
439.144	0.0178
439.504	0.0205
439.863	0.0187
440.223	0.0165
440.583	0.0169
440.942	0.0172
441.302	0.0189
441.661	0.0148
442.021	0.0159
442.38	0.0146
442.739	0.0173
443.099	0.0179
443.458	0.0193
443.817	0.0208
444.176	0.0187
444.536	0.0168
444.895	0.014
445.254	0.0151
445.613	0.017
445.972	0.0168
446.331	0.0156
446.69	0.0133
447.049	0.014
447.407	0.0136
447.766	0.0154
448.125	0.016
448.484	0.0168
448.842	0.0167
449.201	0.0145
449.559	0.0134
449.918	0.0105
450.276	0.0114
450.635	0.0121
450.993	0.0139
451.352	0.0124
451.71	0.0165
452.068	0.0147
452.426	0.0177
452.785	0.0136
453.143	0.0141
453.501	0.0123
453.859	0.0115
454.217	0.0119
454.575	0.0118
454.933	0.012
455.291	0.0138
455.649	0.0139
456.006	0.0149
456.364	0.0139
456.722	0.0148
457.079	0.0143
457.437	0.0147
457.795	0.0129
458.152	0.0133
458.51	0.013
458.867	0.0138
459.225	0.0133
459.582	0.0136
459.939	0.015
460.297	0.016
460.654	0.0141
461.011	0.0142
461.368	0.0128
461.725	0.0148
462.082	0.013
462.44	0.0151
462.797	0.013
463.153	0.0134
463.51	0.0127
463.867	0.0127
464.224	0.013
464.581	0.0112
464.938	0.0091
465.294	0.009
465.651	0.0123
466.008	0.0147
466.364	0.0152
466.721	0.0147
467.077	0.0153
467.434	0.0147
467.79	0.0128
468.146	0.0135
468.503	0.0133
468.859	0.0143
469.215	0.011
469.571	0.0091
469.927	0.0061
470.284	0.0088
470.64	0.0095
470.996	0.0077
471.352	0.0093
471.707	0.0094
472.063	0.0091
472.419	0.0097
472.775	0.0095
473.131	0.0105
473.486	0.0085
473.842	0.0082
474.198	0.0099
474.553	0.0096
474.909	0.0107
475.264	0.0107
475.62	0.009
475.975	0.0081
476.331	0.0089
476.686	0.0104
477.041	0.0131
477.396	0.0092
477.752	0.0104
478.107	0.0097
478.462	0.0127
478.817	0.0099
479.172	0.0065
479.527	0.0088
479.882	0.0063
480.237	0.0088
480.591	0.0066
480.946	0.012
481.301	0.0117
481.656	0.0124
482.01	0.0122
482.365	0.0126
482.72	0.0124
483.074	0.0105
483.429	0.0082
483.783	0.0086
484.137	0.0064
484.492	0.0079
484.846	0.008
485.2	0.0079
485.555	0.0086
485.909	0.0087
486.263	0.0099
486.617	0.0085
486.971	0.0074
487.325	0.0108
487.679	0.012
488.033	0.0104
488.387	0.0087
488.741	0.0092
489.094	0.0079
489.448	0.0072
489.802	0.0056
490.156	0.0066
490.509	0.0064
490.863	0.0063
491.216	0.0085
491.57	0.0087
491.923	0.0102
492.277	0.0093
492.63	0.0093
492.983	0.0072
493.337	0.0076
493.69	0.0082
494.043	0.0087
494.396	0.0088
494.749	0.0085
495.102	0.007
495.455	0.0056
495.808	0.0042
496.161	0.0079
496.514	0.0072
496.867	0.0081
497.22	0.0064
497.572	0.0075
497.925	0.0072
498.278	0.0088
498.63	0.0077
498.983	0.0098
499.335	0.0103
499.688	0.0107
500.04	0.008
500.393	0.0064
500.745	0.0066
501.097	0.0079
501.449	0.0065
501.802	0.0065
502.154	0.0064
502.506	0.0075
502.858	0.0063
503.21	0.0072
503.562	0.0052
503.914	0.0055
504.266	0.0044
504.618	0.003
504.969	0.0057
505.321	0.007
505.673	0.0096
506.025	0.0059
506.376	0.0039
506.728	0.0026
507.079	0.0044
507.431	0.0053
507.782	0.0069
508.134	0.0053
508.485	0.0047
508.836	0.0035
509.188	0.0051
509.539	0.0059
509.89	0.0077
510.241	0.0074
510.592	0.0088
510.943	0.0077
511.294	0.0074
511.645	0.0068
511.996	0.0062
512.347	0.0046
512.698	0.0024
513.049	0.0023
513.399	0.0046
513.75	0.0035
514.101	0.0055
514.451	0.0036
514.802	0.0034
515.152	0.0023
515.503	0.0038
515.853	0.0072
516.203	0.0068
516.554	0.0083
516.904	0.0091
517.254	0.0098
517.604	0.0089
517.955	0.0059
518.305	0.0058
518.655	0.0037
519.005	0.0048
519.355	0.005
519.705	0.0069
520.055	0.0062
520.404	0.0032
520.754	0.0027
521.104	0.0033
521.454	0.0033
521.803	0.0016
522.153	0.0021
522.502	0.0015
522.852	0.0005
523.201	-0.0015
523.551	0.0035
523.9	0.0057
524.249	0.0068
524.599	0.0018
524.948	0.0024
525.297	0.0012
525.646	0.0038
525.995	0.0003
526.344	0.0031
526.694	0.0026
527.042	0.0024
527.391	-0.0001
527.74	-0.0005
528.089	-0.0005
528.438	0.0009
528.787	0.0047
529.135	0.0074
529.484	0.005
529.833	0.0032
530.181	0.0037
530.53	0.0039
530.878	0.0037
531.227	0.002
531.575	0.0046
531.923	0.0038
532.271	0.0038
532.62	0.0012
532.968	0.0039
533.316	0.0053
533.664	0.0045
534.012	0.0021
534.36	0.0005
534.708	0.0033
535.056	0.002
535.404	0.0035
535.752	0.0044
536.1	0.0028
536.447	0.0016
536.795	0.0015
537.143	0.0053
537.49	0.0072
537.838	0.0045
538.185	0.0024
538.533	-0.0003
538.88	0.0005
539.228	-0.0001
539.575	-0.0007
539.922	-0.0001
540.269	0.001
540.617	0.0026
540.964	0.0015
541.311	0.0011
541.658	-0.0018
542.005	-0.0035
542.352	-0.0048
542.699	-0.0038
543.045	-0.001
543.392	0.0009
543.739	0.0015
544.086	0.0005
544.432	-0.0012
544.779	0.0018
545.126	0.0026
545.472	0.0054
545.819	0.0025
546.165	0.0033
546.512	0.0025
546.858	0.0035
547.204	0.0018
547.55	0.0031
547.897	0.003
548.243	0.004
548.589	0.0025
548.935	0.0011
549.281	0.0013
549.627	0.0009
549.973	0.0015
550.319	0.0001
550.665	0.0007
551.01	-0.0006
551.356	0.0023
551.702	0.002
552.048	0.0033
552.393	0.0012
552.739	0.0005
553.084	0.0031
553.43	0.0022
553.775	0.0027
554.12	0.0026
554.466	0.0051
554.811	0.0053
555.156	0.0046
555.502	0.0013
555.847	0.0005
556.192	-0.0012
556.537	-0.0008
556.882	0.0005
557.227	0.0004
557.572	0.0011
557.917	-0.0005
558.261	0.0004
558.606	-0.0023
558.951	-0.0027
559.295	-0.0033
559.64	0.0006
559.985	0.0014
560.329	-0.0033
560.674	-0.0068
561.018	-0.0048
561.363	-0.0024
561.707	-0.0024
562.051	-0.0051
562.395	-0.0022
562.74	-0.0018
563.084	-0.0014
563.428	-0.001
563.772	0.0018
564.116	-0.0001
564.46	-0.002
564.804	-0.0034
565.148	-0.0036
565.492	-0.0018
565.835	0.0008
566.179	0.005
566.523	0.0041
566.866	0.0015
567.21	-0.001
567.554	-0.0009
567.897	0.0004
568.24	-0.0023
568.584	-0.002
568.927	-0.0022
569.271	0.0001
569.614	-0.0015
569.957	-0.0013
570.3	-0.0013
570.643	0.0004
570.986	-0.0004
571.329	0.0019
571.672	-0.0011
572.015	-0.0022
572.358	-0.0035
572.701	-0.0003
573.044	-0.0015
573.387	-0.0037
573.729	-0.0029
574.072	-0.0012
574.414	-0.0011
574.757	-0.0019
575.099	-0.0038
575.442	-0.0043
575.784	-0.0022
576.127	0.0014
576.469	0.0018
576.811	-0.0011
577.153	-0.0008
577.496	-0.0011
577.838	-0.0008
578.18	-0.0028
578.522	-0.0022
578.864	-0.0021
579.206	0.0015
579.548	0.0028
579.889	0.0031
580.231	0.0019
580.573	0.0051
580.915	0.0025
581.256	-0.0022
581.598	-0.005
581.939	-0.0056
582.281	0.0007
582.622	0.0013
582.964	0
583.305	-0
583.646	-0.003
583.988	0.0032
584.329	0.0039
584.67	-0.0001
585.011	-0.0032
585.352	-0.0085
585.693	-0.0041
586.034	-0.0056
586.375	-0.0058
586.716	-0.0046
587.057	-0.0035
587.398	-0.0008
587.738	0.0004
588.079	-0.0016
588.42	-0.0025
588.76	-0.0045
589.101	-0.004
589.441	-0.0046
589.782	-0.0045
590.122	-0.0018
590.463	0.0006
590.803	-0.002
591.143	-0.0028
591.483	-0.0044
591.823	-0.0051
592.164	-0.0065
592.504	-0.0039
592.844	-0.0035
593.184	-0.0031
593.523	-0.004
593.863	-0.0029
594.203	-0.0022
594.543	0.0004
594.883	-0.0021
595.222	-0.0023
595.562	0.0002
595.901	0.0006
596.241	-0.0014
596.58	-0.005
596.92	-0.0057
597.259	-0.0071
597.599	-0.0077
597.938	-0.0032
598.277	0.0006
598.616	-0.0004
598.955	-0.0021
599.295	-0.0005
599.634	-0.0002
599.973	0.0022
600.312	-0.0015
600.65	-0.0029
600.989	-0.0068
601.328	-0.0049
601.667	0.0045
602.005	0.0031
602.344	0.0009
602.683	-0.0043
603.021	-0.0047
603.36	-0.008
603.698	-0.011
604.037	-0.0111
604.375	-0.008
604.713	-0.0082
605.052	-0.0081
605.39	-0.0064
605.728	-0.0056
606.066	0.0032
606.404	0.0033
606.742	0.0013
607.08	0
607.418	-0.0016
607.756	0.0004
608.094	-0.0005
608.431	0.0002
608.769	0.0011
609.107	-0.0024
609.444	-0.0008
609.782	-0.0024
610.12	0
610.457	-0.0013
610.794	-0.0018
611.132	-0.0054
611.469	-0.0072
611.806	-0.0081
612.144	-0.0107
612.481	-0.0057
612.818	-0.0024
613.155	0.0022
613.492	-0.0025
613.829	-0.004
614.166	-0.0036
614.503	-0.0015
614.84	-0.005
615.176	-0.0062
615.513	-0.0038
615.85	-0.0007
616.187	0.0017
616.523	-0.0017
616.86	-0.0038
617.196	-0.0044
617.533	-0.0002
617.869	-0.001
618.205	-0.0031
618.542	-0.0034
618.878	-0.0043
619.214	-0.0013
619.55	-0.0027
619.886	0.0006
620.222	-0.0025
620.558	-0.0035
620.894	-0.0035
621.23	-0.0045
621.566	-0.0044
621.902	-0.0034
622.238	-0.0051
622.573	-0.001
622.909	-0.0029
623.244	-0.0033
623.58	-0.0096
623.916	-0.0091
624.251	-0.0046
624.586	-0.0009
624.922	-0.0034
625.257	-0.0074
625.592	-0.0122
625.927	-0.0094
626.263	-0.0064
626.598	-0.0054
626.933	-0.008
627.268	-0.0071
627.603	-0.0036
627.938	-0.0053
628.272	-0.004
628.607	-0.0072
628.942	-0.0065
629.277	-0.0073
629.611	-0.0077
629.946	-0.0043
630.281	-0.0062
630.615	-0.0063
630.949	-0.0068
631.284	-0.0051
631.618	-0.0006
631.953	-0.0026
632.287	-0.0012
632.621	-0.0038
632.955	-0.0039
633.289	-0.0057
633.623	-0.0101
633.957	-0.0085
634.291	-0.0097
634.625	-0.0081
634.959	-0.0062
635.293	-0.0018
635.627	0.0035
635.96	0.0027
636.294	0.0004
636.627	-0.0036
636.961	-0.0031
637.294	-0.003
637.628	-0.003
637.961	-0.0032
638.295	-0.0059
638.628	-0.0006
638.961	-0.0009
639.294	0.0014
639.628	-0.0035
639.961	-0.0053
640.294	-0.0076
640.627	-0.0072
640.96	-0.0061
641.293	-0.0059
641.625	-0.0038
641.958	-0.0046
642.291	0.0005
642.624	-0.0033
642.956	-0.0066
643.289	-0.0118
643.621	-0.0063
643.954	-0.0081
644.286	-0.0044
644.619	-0.0074
644.951	-0.0029
645.283	-0.0081
645.616	-0.007
645.948	-0.0054
646.28	-0.0038
646.612	-0.0078
646.944	-0.0076
647.276	-0.0075
647.608	-0.0086
647.94	-0.0098
648.272	-0.0103
648.603	-0.0066
648.935	-0.0047
649.267	-0.0057
649.598	-0.0061
649.93	-0.0121
650.261	-0.0108
650.593	-0.0139
650.924	-0.0133
651.256	-0.0123
651.587	-0.0083
651.918	-0.0059
652.25	-0.0049
652.581	-0.0056
652.912	-0.004
653.243	-0.0009
653.574	0.0049
653.905	-0
654.236	-0.0037
654.567	-0.01
654.897	-0.0082
655.228	-0.009
655.559	-0.0012
655.89	0.0007
656.22	0.0019
656.551	-0.0026
656.881	-0.0031
657.212	-0.003
657.542	-0.0052
657.872	-0.0082
658.203	-0.0097
658.533	0.0044
658.863	0.0172
659.193	0.0002
659.523	-0.0058
659.853	-0.0244
660.183	-0.016
660.513	-0.0111
660.843	-0.0049
661.173	-0.0074
661.503	-0.0093
661.833	-0.0107
662.162	-0.0068
662.492	-0.0051
662.822	-0.0039
663.151	-0.0068
663.481	-0.0072
663.81	-0.009
664.139	-0.0088
664.469	-0.0088
664.798	-0.0105
665.127	-0.009
665.456	-0.0075
665.785	-0.0019
666.114	0.0009
666.443	0.0004
666.772	-0.0039
667.101	-0.0059
667.43	-0.0087
667.759	-0.005
668.088	-0.008
668.416	-0.0101
668.745	-0.012
669.074	-0.0134
669.402	-0.0117
669.731	-0.0146
670.059	-0.0082
670.388	-0.0066
670.716	-0.0057
671.044	-0.0097
671.372	-0.0091
671.701	-0.0115
672.029	-0.0102
672.357	-0.0108
672.685	-0.0086
673.013	-0.0119
673.341	-0.0105
673.669	-0.0077
673.996	0.0004
674.324	0.0046
674.652	0.0019
674.98	-0.0029
675.307	-0.0105
675.635	-0.0107
675.962	-0.0113
676.29	-0.0079
676.617	-0.008
676.945	-0.009
677.272	-0.009
677.599	-0.0109
677.926	-0.0052
678.253	-0.0079
678.581	-0.01
678.908	-0.0198
679.235	-0.0147
679.561	-0.0118
679.888	-0.0084
680.215	-0.0096
680.542	-0.0037
680.869	0.0008
681.195	-0.0021
681.522	-0.0043
681.849	-0.0096
682.175	-0.0081
682.502	-0.0095
682.828	-0.0097
683.154	-0.0092
683.481	-0.0094
683.807	-0.011
684.133	-0.0098
684.459	-0.0089
684.785	-0.0029
685.111	-0.0063
685.437	-0.0072
685.763	-0.007
686.089	-0.0064
686.415	-0.0066
686.741	-0.0073
687.067	-0.0043
687.392	-0.0045
687.718	-0.0021
688.043	-0.0055
688.369	-0.0028
688.694	-0.0043
689.02	-0.0058
689.345	-0.0069
689.67	-0.0096
689.996	-0.0051
690.321	-0.0054
690.646	-0.0062
690.971	-0.0044
691.296	-0.0049
691.621	-0.0048
691.946	-0.0035
692.271	-0.0042
692.596	-0.0019
692.921	-0.0073
693.245	-0.0092
693.57	-0.0102
693.895	-0.007
694.219	-0.0065
694.544	-0.0094
694.868	-0.0133
695.193	-0.0125
695.517	-0.0071
695.841	-0.007
696.166	-0.008
696.49	-0.0151
696.814	-0.0111
697.138	-0.0084
697.462	-0.0047
697.786	-0.0045
698.11	-0.0052
698.434	0.0005
698.758	-0.0056
699.081	-0.0068
699.405	-0.0141
699.729	-0.0037
700.052	-0.0027
700.376	-0.0032
700.7	-0.0074
701.023	-0.0116
701.346	-0.0131
701.67	-0.0142
701.993	-0.0092
702.316	-0.0081
702.639	-0.0117
702.963	-0.0137
703.286	-0.0126
703.609	-0.0122
703.932	-0.0163
704.255	-0.0155
704.578	-0.0146
704.9	-0.0054
705.223	-0.007
705.546	-0.0052
705.868	-0.0076
706.191	-0.0073
706.514	-0.0087
706.836	-0.0137
707.159	-0.0122
707.481	-0.0092
707.803	-0.0054
708.126	-0.006
708.448	-0.0044
708.77	-0.0086
709.092	-0.0059
709.414	-0.0076
709.736	-0.0005
710.058	-0.0022
710.38	-0.0043
710.702	-0.0067
711.024	-0.0104
711.345	-0.0105
711.667	-0.0145
711.989	-0.0097
712.31	-0.0133
712.632	-0.0133
712.953	-0.0164
713.275	-0.0142
713.596	-0.0089
713.917	-0.0093
714.239	-0.0061
714.56	-0.0085
714.881	-0.0078
715.202	-0.0102
715.523	-0.0095
715.844	-0.0102
716.165	-0.0102
716.486	-0.0095
716.807	-0.0091
717.128	-0.0093
717.448	-0.0084
717.769	-0.0068
718.09	-0.0035
718.41	-0.0074
718.731	-0.0068
719.051	-0.0109
719.372	-0.0088
719.692	-0.0139
720.012	-0.004
720.332	-0.0079
720.653	-0.003
720.973	-0.008
721.293	-0.0044
721.613	-0.008
721.933	-0.0096
722.253	-0.0089
722.573	-0.0089
722.892	-0.01
723.212	-0.014
723.532	-0.0106
723.851	-0.0105
724.171	-0.0121
724.491	-0.0109
724.81	-0.0078
725.129	-0.0022
725.449	-0.0089
725.768	-0.0134
726.087	-0.0134
726.407	-0.0088
726.726	-0.0074
727.045	-0.0069
727.364	-0.0077
727.683	-0.0081
728.002	-0.0132
728.321	-0.0168
728.64	-0.0148
728.958	-0.0142
729.277	-0.0096
729.596	-0.0115
729.914	-0.0091
730.233	-0.0116
730.551	-0.0089
730.87	-0.0093
731.188	-0.0058
731.507	-0.0057
731.825	-0.0055
732.143	-0.009
732.461	-0.0093
732.779	-0.0103
733.097	-0.0105
733.415	-0.0136
733.733	-0.0098
734.051	-0.01
734.369	-0.0066
734.687	-0.0091
735.005	-0.0063
735.322	-0.0116
735.64	-0.0089
735.957	-0.0118
736.275	-0.0129
736.592	-0.0152
736.91	-0.0133
737.227	-0.0054
737.544	-0.0012
737.862	-0.0003
738.179	-0.0031
738.496	-0.0076
738.813	-0.0074
739.13	-0.0078
739.447	-0.0089
739.764	-0.0111
740.081	-0.0117
740.398	-0.0142
740.714	-0.0123
741.031	-0.013
741.348	-0.0057
741.664	-0.0048
741.981	0.0026
742.297	-0.0004
742.614	-0.006
742.93	-0.0106
743.246	-0.0149
743.563	-0.0102
743.879	-0.0146
744.195	-0.0127
744.511	-0.011
744.827	-0.0062
745.143	-0.0074
745.459	-0.0088
745.775	-0.0115
746.091	-0.0112
746.406	-0.0103
746.722	-0.0069
747.038	-0.003
747.353	-0.0072
747.669	-0.0149
747.984	-0.0156
748.3	-0.0138
748.615	-0.0085
748.93	-0.0118
749.246	-0.0139
749.561	-0.0137
749.876	-0.0115
750.191	-0.0085
750.506	-0.0076
750.821	-0.0052
751.136	-0.0028
751.451	-0.0025
751.766	-0.0044
752.08	-0.001
752.395	-0.0029
752.71	-0.0013
753.024	-0.0031
753.339	-0.0016
753.653	-0.0043
753.968	-0.0052
754.282	-0.0081
754.596	-0.0087
754.911	-0.0148
755.225	-0.0171
755.539	-0.0177
755.853	-0.0166
756.167	-0.0171
756.481	-0.0155
756.795	-0.0124
757.109	-0.0088
757.423	-0.0092
757.736	-0.007
758.05	-0.0111
758.364	-0.0097
758.677	-0.0146
758.991	-0.0092
759.304	-0.0087
759.618	-0.0059
759.931	-0.0075
760.244	-0.0089
760.558	-0.0084
760.871	-0.0094
761.184	-0.0126
761.497	-0.0174
761.81	-0.0141
762.123	-0.0064
762.436	-0.0026
762.749	-0.0077
763.062	-0.0099
763.374	-0.0108
763.687	-0.0059
764	-0.0048
764.312	-0.0032
764.625	-0.0071
764.937	-0.0123
765.25	-0.0146
765.562	-0.01
765.874	-0.0059
766.186	-0.0048
766.499	-0.008
766.811	-0.0104
767.123	-0.0085
767.435	-0.0084
767.747	-0.0044
768.059	-0.0064
768.37	-0.0025
768.682	-0.0043
768.994	-0.0058
769.306	-0.0102
769.617	-0.0148
769.929	-0.0133
770.24	-0.0118
770.552	-0.0045
770.863	-0.0056
771.174	-0.0091
771.486	-0.0134
771.797	-0.0077
772.108	-0.0088
772.419	-0.0093
772.73	-0.0125
773.041	-0.0073
773.352	-0.0043
773.663	-0.0027
773.974	-0.0014
774.285	-0.0041
774.595	-0.0113
774.906	-0.0125
775.217	-0.0118
775.527	-0.0085
775.838	-0.0128
776.148	-0.014
776.458	-0.0145
776.769	-0.0135
777.079	-0.0089
777.389	-0.009
777.699	-0.0086
778.009	-0.0111
778.319	-0.0086
778.629	-0.0033
778.939	-0.0052
779.249	-0.005
779.559	-0.0094
779.869	-0.0085
780.178	-0.0131
780.488	-0.0148
780.798	-0.0158
781.107	-0.0103
781.417	-0.0076
781.726	-0.0036
782.035	-0.0066
782.345	-0.008
782.654	-0.0135
782.963	-0.0144
783.272	-0.0123
783.581	-0.0042
783.89	-0.0024
784.199	-0.0056
784.508	-0.0139
784.817	-0.0168
785.126	-0.0146
785.434	-0.0111
785.743	-0.007
786.052	-0.0074
786.36	-0.0067
786.669	-0.0105
786.977	-0.0121
787.285	-0.0135
787.594	-0.0125
787.902	-0.0081
788.21	-0.01
788.518	-0.0071
788.826	-0.0156
789.135	-0.0155
789.442	-0.0247
789.75	-0.0234
790.058	-0.0237
790.366	-0.0188
790.674	-0.0175
790.981	-0.0097
791.289	-0.0035
791.597	-0.0008
791.904	-0.0041
792.212	-0.0058
792.519	-0.0103
792.826	-0.0099
793.134	-0.0156
793.441	-0.015
793.748	-0.0156
794.055	-0.0119
794.362	-0.0101
794.669	-0.0124
794.976	-0.0169
795.283	-0.012
795.59	-0.0113
795.897	-0.003
796.203	-0.0059
796.51	-0.002
796.817	0.001
797.123	-0.0005
797.43	-0.0059
797.736	-0.014
798.042	-0.0172
798.349	-0.0165
798.655	-0.0127
798.961	-0.014
799.267	-0.0152
799.573	-0.018
799.879	-0.0133
800.185	-0.0093
800.491	-0.0098
800.797	-0.0088
801.103	-0.0069
801.408	-0.0058
801.714	-0.0062
802.02	-0.0081
802.325	-0.0057
802.631	-0.0125
802.936	-0.0117
803.242	-0.0118
803.547	-0.0102
803.852	-0.0121
804.157	-0.0104
804.462	-0.0068
804.768	-0.0041
805.073	-0.004
805.378	-0.0041
805.682	-0.0052
805.987	-0.0114
806.292	-0.0139
806.597	-0.016
806.902	-0.0129
807.206	-0.0189
807.511	-0.0186
807.815	-0.0161
808.12	-0.0124
808.424	-0.0082
808.728	-0.0147
809.033	-0.0092
809.337	-0.0148
809.641	-0.0171
809.945	-0.0197
810.249	-0.02
810.553	-0.0178
810.857	-0.0207
811.161	-0.0237
811.465	-0.0176
811.768	-0.0116
812.072	-0.0034
812.376	-0.0049
812.679	-0.0147
812.983	-0.0203
813.286	-0.022
813.59	-0.0061
813.893	0.0032
814.196	0.003
814.499	-0.0011
814.803	-0.0123
815.106	-0.0105
815.409	-0.0115
815.712	0.0005
816.015	-0.0003
816.318	0.001
816.62	-0.001
816.923	-0.0038
817.226	-0.005
817.528	-0.0092
817.831	-0.0048
818.133	-0.0089
818.436	-0.016
818.738	-0.0177
819.041	-0.0244
819.343	-0.0213
819.645	-0.0227
819.947	-0.0124
820.249	-0.013
820.551	-0.0045
820.853	-0.0063
821.155	0.0038
821.457	-0.0082
821.759	-0.011
822.061	-0.0163
822.362	-0.0151
822.664	-0.0059
822.966	-0.0088
823.267	0.001
823.569	-0.0037
823.87	0.0015
824.171	-0.0097
824.473	-0.0209
824.774	-0.0236
825.075	-0.0131
825.376	-0.005
825.677	-0.0019
825.978	-0.0076
826.279	-0.0006
826.58	-0.0028
826.881	-0.0042
827.181	-0.0103
827.482	-0.0128
827.783	-0.0163
828.083	-0.0156
828.384	-0.0163
828.684	-0.0128
828.985	-0.0147
829.285	-0.0129
829.585	-0.0113
829.885	-0.009
830.185	-0.0068
830.486	-0.0106
830.786	-0.0132
831.086	-0.0165
831.385	-0.0146
831.685	-0.0075
831.985	-0.0059
832.285	-0.0034
832.585	-0.0011
832.884	0.0035
833.184	-0.004
833.483	-0.0092
833.783	-0.0176
834.082	-0.0124
834.381	-0.0187
834.681	-0.0256
834.98	-0.0325
835.279	-0.03
835.578	-0.0189
835.877	-0.0193
836.176	-0.0203
836.475	-0.0094
836.774	-0.0063
837.072	-0.0075
837.371	-0.0156
837.67	-0.005
837.968	-0.0075
838.267	-0.0099
838.565	-0.0193
838.864	-0.0158
839.162	-0.0272
839.46	-0.0265
839.759	-0.0222
840.057	-0.0115
840.355	-0.0022
840.653	0.0003
840.951	-0.0097
841.249	-0.0146
841.547	-0.0171
841.845	-0.0129
842.142	0.008
842.44	-0.0009
842.738	0.003
843.035	-0.0383
843.333	-0.0432
843.63	-0.0432
843.928	-0.0126
844.225	0.0017
844.522	0.0056
844.82	0.0008
845.117	-0.0047
845.414	-0.0133
845.711	-0.0181
846.008	-0.0203
846.305	-0.0061
846.602	-0.0195
846.898	-0.0117
847.195	-0.026
847.492	-0.0123
847.788	-0.022
848.085	-0.0204
848.382	-0.0108
848.678	-0.0116
848.974	-0.0024
849.271	-0.025
849.567	-0.0132
849.863	-0.018
850.159	-0.0125
850.455	-0.0195
850.751	-0.0141
851.047	-0.0078
851.343	-0.0044
851.639	-0.0142
851.935	-0.0113
852.23	-0.0072
852.526	-0.0045
852.822	-0.0079
853.117	-0.0173
853.413	-0.0208
853.708	-0.0258
854.003	-0.0264
854.299	-0.0157
854.594	-0.0202
854.889	-0.008
855.184	-0.0257
855.479	-0.0362
855.774	-0.0406
856.069	-0.0326
856.364	-0.0076
856.659	-0.0052
856.954	-0.004
857.248	-0.0173
857.543	-0.0217
857.837	-0.0275
858.132	-0.0218
858.426	-0.0243
858.721	-0.0188
859.015	-0.0078
859.309	-0.0084
859.604	0.0071
859.898	0.0109
860.192	0.012
860.486	0.0076
860.78	0.0041
861.074	0.0118
861.367	0.0218
861.661	0.0145
861.955	0.014
862.248	0.0023
862.542	-0.0005
862.836	-0.0129
863.129	-0.0208
863.422	-0.0387
863.716	-0.0186
864.009	-0.0226
864.302	-0.0239
864.595	-0.0415
864.889	-0.0308
865.182	-0.0163
865.475	-0.004
865.767	-0.0192
866.06	-0.0057
866.353	-0.0269
866.646	-0.0381
866.938	-0.0477
867.231	-0.0248
867.524	0.0066
867.816	0.0084
868.109	-0.0098
868.401	-0.0269
868.693	-0.0285
868.985	-0.0147
869.278	-0.0043
869.57	-0.0235
869.862	-0.0299
870.154	-0.0413
870.446	-0.017
870.738	-0.0133
871.029	-0.0077
871.321	-0.0166
871.613	-0.0256
871.904	-0.0139
872.196	-0.014
872.487	-0.0041
872.779	-0.0104
873.07	0.0125
873.362	0.0029
873.653	-0.0075
873.944	-0.0359
874.235	-0.0037
874.526	0.0252
874.817	0.0276
875.108	0.0133
875.399	-0.0174
875.69	-0.0346
875.981	-0.0437
876.271	-0.035
876.562	-0.015
876.853	0.0033
877.143	0.0108
877.434	-0.0091
877.724	-0.023
878.014	-0.0189
878.305	0.0126
878.595	0.0116
878.885	0.013
879.175	0.0107
879.465	0.0355
879.755	0.0515
880.045	0.0545
880.335	0.0361
880.624	0.0027
880.914	0.0027
