Data from 8SS04MI_072217_1a_Absorbance_18-59-49-488.txt Node
Date: Fri Jul 28 18:59:49 MDT 2017
User: Tank Lab
Spectrometer: FLMS01220
Trigger mode: 0
Integration Time (sec): 1.000000E-1
Scans to average: 10
Electric dark correction enabled: true
Nonlinearity correction enabled: false
Boxcar width: 1
XAxis mode: Wavelengths
Number of Pixels in Spectrum: 2048
>>>>>Begin Spectral Data<<<<<
179.47	0.308
179.856	0.308
180.241	-0
180.626	-0
181.011	-0.2437
181.396	0.1697
181.781	-0
182.166	-1.3298
182.551	0.0606
182.936	0.6325
183.321	-0
183.706	0.5198
184.091	-0.2426
184.476	-0.3915
184.86	-0.4902
185.245	-1.1184
185.63	-0.3279
186.015	0.2095
186.399	-0
186.784	-0
187.169	-0
187.553	-0
187.938	-0
188.322	-0.1102
188.707	-0.0805
189.091	-0.0206
189.475	0.0163
189.86	0.0417
190.244	0.0715
190.629	0.08
191.013	0.1258
191.397	0.1655
191.781	0.2267
192.165	0.2588
192.55	0.2738
192.934	0.2967
193.318	0.2827
193.702	0.2977
194.086	0.2995
194.47	0.3179
194.854	0.3262
195.238	0.3266
195.622	0.329
196.006	0.3344
196.389	0.3336
196.773	0.3277
197.157	0.3273
197.541	0.3355
197.924	0.3374
198.308	0.3335
198.692	0.3297
199.075	0.3285
199.459	0.3236
199.843	0.3192
200.226	0.3192
200.61	0.3207
200.993	0.3162
201.376	0.3121
201.76	0.3057
202.143	0.3055
202.527	0.3023
202.91	0.3011
203.293	0.2946
203.676	0.2894
204.059	0.2889
204.443	0.2904
204.826	0.2944
205.209	0.2983
205.592	0.2999
205.975	0.294
206.358	0.2848
206.741	0.282
207.124	0.2879
207.507	0.2881
207.89	0.2863
208.273	0.2823
208.655	0.2819
209.038	0.279
209.421	0.2755
209.804	0.273
210.186	0.2737
210.569	0.2723
210.951	0.2751
211.334	0.275
211.717	0.2761
212.099	0.2688
212.482	0.2655
212.864	0.2626
213.246	0.2633
213.629	0.263
214.011	0.2611
214.393	0.2595
214.776	0.2548
215.158	0.2503
215.54	0.249
215.922	0.2488
216.305	0.25
216.687	0.2462
217.069	0.2409
217.451	0.2379
217.833	0.2365
218.215	0.2344
218.597	0.2319
218.979	0.2265
219.361	0.2218
219.742	0.2201
220.124	0.2213
220.506	0.2201
220.888	0.2137
221.27	0.2098
221.651	0.2076
222.033	0.2062
222.415	0.2013
222.796	0.2
223.178	0.1973
223.559	0.1967
223.941	0.1912
224.322	0.1887
224.704	0.1849
225.085	0.1845
225.466	0.1812
225.848	0.1783
226.229	0.1752
226.61	0.1749
226.992	0.1731
227.373	0.1701
227.754	0.1663
228.135	0.1627
228.516	0.1616
228.897	0.1587
229.278	0.1581
229.659	0.1554
230.04	0.1552
230.421	0.1534
230.802	0.1516
231.183	0.1502
231.564	0.1499
231.944	0.1485
232.325	0.1462
232.706	0.1425
233.087	0.1417
233.467	0.1411
233.848	0.1404
234.229	0.1384
234.609	0.1377
234.99	0.1361
235.37	0.1358
235.751	0.1345
236.131	0.1346
236.511	0.1339
236.892	0.1334
237.272	0.1319
237.652	0.1306
238.033	0.1296
238.413	0.1288
238.793	0.1285
239.173	0.1267
239.553	0.1265
239.933	0.1255
240.313	0.1253
240.694	0.1219
241.074	0.1193
241.453	0.1173
241.833	0.1174
242.213	0.1177
242.593	0.1165
242.973	0.1172
243.353	0.1173
243.732	0.119
244.112	0.1177
244.492	0.1157
244.872	0.1131
245.251	0.1134
245.631	0.1126
246.01	0.1134
246.39	0.1119
246.769	0.1127
247.149	0.1124
247.528	0.1126
247.908	0.1115
248.287	0.111
248.666	0.1097
249.045	0.1099
249.425	0.1084
249.804	0.107
250.183	0.1068
250.562	0.1064
250.941	0.108
251.32	0.1073
251.699	0.1066
252.078	0.105
252.457	0.1048
252.836	0.1053
253.215	0.1065
253.594	0.1041
253.973	0.1038
254.352	0.1027
254.731	0.1044
255.109	0.1033
255.488	0.1027
255.867	0.1019
256.245	0.1006
256.624	0.1004
257.002	0.1011
257.381	0.1018
257.759	0.1006
258.138	0.0996
258.516	0.1011
258.895	0.1013
259.273	0.0996
259.651	0.0975
260.03	0.0981
260.408	0.0997
260.786	0.0992
261.164	0.098
261.542	0.0963
261.921	0.0954
262.299	0.0955
262.677	0.096
263.055	0.0966
263.433	0.0954
263.811	0.0949
264.188	0.0939
264.566	0.0944
264.944	0.0936
265.322	0.0937
265.7	0.0932
266.077	0.0923
266.455	0.0916
266.833	0.0916
267.21	0.0922
267.588	0.0928
267.966	0.0925
268.343	0.0917
268.721	0.0909
269.098	0.0905
269.475	0.0901
269.853	0.0894
270.23	0.0881
270.607	0.0881
270.985	0.088
271.362	0.0866
271.739	0.0843
272.116	0.0829
272.494	0.0835
272.871	0.0836
273.248	0.0845
273.625	0.0836
274.002	0.083
274.379	0.0808
274.756	0.0809
275.132	0.0815
275.509	0.082
275.886	0.0801
276.263	0.0792
276.64	0.0786
277.016	0.0781
277.393	0.0796
277.77	0.0785
278.146	0.0802
278.523	0.0789
278.899	0.079
279.276	0.0773
279.652	0.075
280.029	0.0748
280.405	0.0743
280.782	0.075
281.158	0.074
281.534	0.0719
281.91	0.0715
282.287	0.0714
282.663	0.0744
283.039	0.0747
283.415	0.0736
283.791	0.0715
284.167	0.0707
284.543	0.0716
284.919	0.0707
285.295	0.0702
285.671	0.0693
286.047	0.0691
286.423	0.0673
286.799	0.0667
287.174	0.0665
287.55	0.067
287.926	0.0667
288.301	0.0668
288.677	0.0671
289.053	0.0674
289.428	0.0664
289.804	0.0648
290.179	0.064
290.555	0.0644
290.93	0.0648
291.305	0.0639
291.681	0.0643
292.056	0.065
292.431	0.0642
292.806	0.0637
293.182	0.0614
293.557	0.0605
293.932	0.058
294.307	0.0584
294.682	0.0594
295.057	0.061
295.432	0.0613
295.807	0.0608
296.182	0.0603
296.557	0.0597
296.932	0.059
297.306	0.0581
297.681	0.0568
298.056	0.0577
298.43	0.0569
298.805	0.0552
299.18	0.0544
299.554	0.0544
299.929	0.0556
300.303	0.0546
300.678	0.0526
301.052	0.054
301.427	0.0528
301.801	0.0546
302.175	0.0525
302.55	0.0536
302.924	0.0521
303.298	0.0522
303.672	0.0523
304.046	0.0524
304.421	0.0511
304.795	0.0495
305.169	0.0498
305.543	0.0493
305.917	0.0493
306.291	0.0481
306.664	0.0495
307.038	0.0494
307.412	0.0496
307.786	0.0488
308.16	0.0483
308.533	0.0485
308.907	0.0478
309.281	0.0487
309.654	0.0467
310.028	0.0463
310.401	0.0454
310.775	0.0463
311.148	0.0469
311.522	0.0472
311.895	0.0464
312.268	0.0468
312.642	0.0459
313.015	0.0455
313.388	0.0445
313.761	0.0444
314.135	0.0456
314.508	0.0459
314.881	0.0443
315.254	0.042
315.627	0.041
316	0.0417
316.373	0.0416
316.746	0.0414
317.118	0.0396
317.491	0.0406
317.864	0.0407
318.237	0.0422
318.61	0.0408
318.982	0.0394
319.355	0.0379
319.727	0.0397
320.1	0.0406
320.473	0.0407
320.845	0.0403
321.218	0.0401
321.59	0.0413
321.962	0.0399
322.335	0.0384
322.707	0.0376
323.079	0.037
323.452	0.0384
323.824	0.0381
324.196	0.0381
324.568	0.0368
324.94	0.0363
325.312	0.0382
325.684	0.0385
326.056	0.0388
326.428	0.036
326.8	0.0346
327.172	0.0333
327.544	0.0324
327.915	0.0304
328.287	0.0312
328.659	0.0339
329.031	0.0365
329.402	0.0345
329.774	0.032
330.145	0.0298
330.517	0.0303
330.888	0.0302
331.26	0.0315
331.631	0.0325
332.003	0.0337
332.374	0.0319
332.745	0.031
333.117	0.0301
333.488	0.0306
333.859	0.0309
334.23	0.0301
334.601	0.0299
334.972	0.0313
335.343	0.0316
335.714	0.0311
336.085	0.028
336.456	0.027
336.827	0.0274
337.198	0.0284
337.569	0.0279
337.94	0.0274
338.31	0.0265
338.681	0.0265
339.052	0.0272
339.422	0.027
339.793	0.0277
340.164	0.0261
340.534	0.0253
340.905	0.0231
341.275	0.022
341.645	0.0229
342.016	0.0258
342.386	0.0263
342.756	0.026
343.127	0.0239
343.497	0.0232
343.867	0.0226
344.237	0.0241
344.607	0.0242
344.977	0.0236
345.347	0.0238
345.717	0.0233
346.087	0.0244
346.457	0.0238
346.827	0.0251
347.197	0.0243
347.567	0.0231
347.936	0.0224
348.306	0.0238
348.676	0.0241
349.046	0.0249
349.415	0.0238
349.785	0.0248
350.154	0.0233
350.524	0.023
350.893	0.0206
351.263	0.0214
351.632	0.0214
352.001	0.022
352.371	0.0214
352.74	0.0201
353.109	0.0214
353.478	0.0216
353.847	0.022
354.217	0.0211
354.586	0.0195
354.955	0.0198
355.324	0.019
355.693	0.0202
356.062	0.0203
356.43	0.0217
356.799	0.0205
357.168	0.0194
357.537	0.0189
357.906	0.019
358.274	0.0179
358.643	0.0165
359.011	0.0167
359.38	0.0171
359.749	0.0169
360.117	0.0156
360.486	0.0156
360.854	0.0155
361.222	0.0157
361.591	0.0151
361.959	0.0123
362.327	0.0137
362.695	0.0152
363.064	0.0189
363.432	0.0179
363.8	0.016
364.168	0.0147
364.536	0.0151
364.904	0.0141
365.272	0.0132
365.64	0.0123
366.008	0.0144
366.376	0.0148
366.743	0.0146
367.111	0.0137
367.479	0.0129
367.847	0.0142
368.214	0.0154
368.582	0.0165
368.949	0.0167
369.317	0.015
369.684	0.0141
370.052	0.0134
370.419	0.0135
370.787	0.0148
371.154	0.0156
371.521	0.0158
371.889	0.014
372.256	0.0131
372.623	0.0139
372.99	0.0135
373.357	0.0129
373.724	0.0142
374.091	0.0158
374.458	0.0146
374.825	0.0115
375.192	0.0098
375.559	0.0109
375.926	0.0112
376.293	0.0123
376.659	0.0123
377.026	0.0124
377.393	0.0125
377.759	0.0131
378.126	0.0131
378.492	0.0122
378.859	0.0118
379.225	0.0093
379.592	0.0086
379.958	0.0085
380.325	0.0091
380.691	0.0098
381.057	0.0095
381.423	0.0102
381.79	0.0091
382.156	0.0063
382.522	0.0068
382.888	0.0079
383.254	0.0107
383.62	0.0101
383.986	0.0098
384.352	0.0091
384.718	0.0095
385.084	0.0087
385.449	0.0081
385.815	0.0078
386.181	0.0086
386.547	0.0088
386.912	0.0065
387.278	0.005
387.643	0.004
388.009	0.0061
388.374	0.0074
388.74	0.0087
389.105	0.0068
389.471	0.0067
389.836	0.0064
390.201	0.0089
390.566	0.0097
390.932	0.0092
391.297	0.0073
391.662	0.0061
392.027	0.0075
392.392	0.0079
392.757	0.0072
393.122	0.0051
393.487	0.0065
393.852	0.0074
394.217	0.007
394.582	0.0076
394.946	0.0072
395.311	0.0069
395.676	0.0044
396.04	0.0045
396.405	0.0057
396.77	0.0063
397.134	0.0036
397.499	0.0051
397.863	0.005
398.227	0.0086
398.592	0.0058
398.956	0.006
399.32	0.0032
399.685	0.0042
400.049	0.0051
400.413	0.0058
400.777	0.0056
401.141	0.0053
401.505	0.0056
401.869	0.0051
402.233	0.0058
402.597	0.0051
402.961	0.0048
403.325	0.0053
403.689	0.0062
404.053	0.0071
404.416	0.0044
404.78	0.0034
405.144	0.0042
405.507	0.0045
405.871	0.0061
406.234	0.0041
406.598	0.0033
406.961	0.002
407.325	0.0034
407.688	0.0045
408.051	0.0043
408.415	0.0056
408.778	0.0055
409.141	0.0048
409.504	0.0018
409.867	0.0002
410.23	0.0014
410.593	0.0021
410.956	0.0034
411.319	0.0025
411.682	0.0015
412.045	0.0012
412.408	-0.0005
412.771	0.0007
413.134	0.0013
413.496	0.0031
413.859	0.0032
414.222	0.0037
414.584	0.0073
414.947	0.0071
415.309	0.006
415.672	0.0049
416.034	0.0055
416.396	0.0049
416.759	0.0034
417.121	0.0037
417.483	0.0026
417.846	0.0004
418.208	0.0005
418.57	0.0017
418.932	0.0013
419.294	0.0012
419.656	0.0019
420.018	0.0045
420.38	0.0047
420.742	0.0032
421.104	0.003
421.466	0.0028
421.827	0.0019
422.189	0.0003
422.551	-0.0013
422.912	0.0017
423.274	0.0034
423.636	0.0046
423.997	0.0036
424.359	0.0034
424.72	0.0042
425.081	0.005
425.443	0.0043
425.804	0.0049
426.165	0.0049
426.527	0.0045
426.888	0.0017
427.249	0.0023
427.61	0.0028
427.971	0.0032
428.332	0.0001
428.693	-0.0009
429.054	-0.0011
429.415	-0.0004
429.776	-0.001
430.137	-0.0009
430.498	0.0014
430.858	0.0043
431.219	0.0034
431.58	0.0039
431.94	0.0023
432.301	0.0007
432.661	-0.0023
433.022	-0.0027
433.382	-0.0003
433.743	0.0036
434.103	0.0049
434.463	0.0052
434.824	0.0012
435.184	0.0003
435.544	0.0013
435.904	0.0041
436.264	0.0058
436.624	0.0044
436.985	0.0023
437.345	0.002
437.704	0.0001
438.064	-0.0018
438.424	-0.0032
438.784	-0.0009
439.144	0.0003
439.504	0.0008
439.863	-0
440.223	0.0012
440.583	-0.0003
440.942	0.0002
441.302	-0
441.661	-0.0002
442.021	0.0008
442.38	0.0012
442.739	0.0013
443.099	-0.0019
443.458	-0.001
443.817	0.0005
444.176	0.0017
444.536	0.0008
444.895	0.0013
445.254	-0.0004
445.613	-0.0018
445.972	-0.0028
446.331	-0.001
446.69	-0.0005
447.049	-0.0023
447.407	-0.0022
447.766	-0.0011
448.125	0.0004
448.484	0.0014
448.842	0.002
449.201	0.0024
449.559	-0.0004
449.918	-0.0001
450.276	-0.0023
450.635	0.002
450.993	-0.0002
451.352	0.0013
451.71	-0.0004
452.068	0.0004
452.426	0.0008
452.785	0.0013
453.143	-0.0005
453.501	0.0013
453.859	-0.0009
454.217	0.0012
454.575	-0.0023
454.933	-0.0025
455.291	-0.0022
455.649	-0.0016
456.006	0.0001
456.364	-0.0014
456.722	-0.0004
457.079	-0.0031
457.437	-0.0021
457.795	-0.0007
458.152	0.0032
458.51	0.0034
458.867	0.0002
459.225	-0.0009
459.582	-0.0032
459.939	-0.0042
460.297	-0.0046
460.654	-0.0029
461.011	-0.0011
461.368	-0.0014
461.725	-0.0006
462.082	0.0012
462.44	-0.001
462.797	-0.0036
463.153	-0.0025
463.51	-0.003
463.867	-0.0017
464.224	-0.0011
464.581	0.0013
464.938	0.0016
465.294	-0.0009
465.651	0.0009
466.008	-0.0033
466.364	-0.0018
466.721	-0.0043
467.077	-0.001
467.434	-0.0028
467.79	-0.0014
468.146	-0.002
468.503	-0.0015
468.859	-0.0039
469.215	-0.0026
469.571	-0.0037
469.927	-0.0009
470.284	-0.0028
470.64	-0.0018
470.996	-0.0021
471.352	-0.0009
471.707	-0.0016
472.063	0.0007
472.419	0.0008
472.775	0.0008
473.131	-0.004
473.486	-0.0062
473.842	-0.0063
474.198	-0.0046
474.553	-0.0044
474.909	-0.0021
475.264	-0.0026
475.62	-0
475.975	-0.0028
476.331	-0.0013
476.686	-0.001
477.041	-0.0004
477.396	-0.0029
477.752	-0.0035
478.107	-0.0027
478.462	-0.0037
478.817	-0.0032
479.172	-0.004
479.527	-0.0029
479.882	-0.0052
480.237	-0.004
480.591	-0.0043
480.946	-0.002
481.301	-0.0027
481.656	-0.0002
482.01	-0.0014
482.365	-0.0016
482.72	-0.004
483.074	-0.0041
483.429	-0.0045
483.783	-0.0034
484.137	-0.0036
484.492	-0.0032
484.846	-0.0022
485.2	-0.0021
485.555	-0
485.909	-0.0003
486.263	0
486.617	-0.0015
486.971	-0.0028
487.325	-0.0028
487.679	-0.0046
488.033	-0.0023
488.387	-0.0022
488.741	-0.0027
489.094	-0.005
489.448	-0.0052
489.802	-0.0038
490.156	-0.0037
490.509	-0.0031
490.863	-0.0026
491.216	-0.0017
491.57	-0.0026
491.923	-0.0029
492.277	-0.003
492.63	-0.0028
492.983	-0.0029
493.337	-0.0043
493.69	-0.0051
494.043	-0.005
494.396	-0.0023
494.749	-0.0019
495.102	-0.0022
495.455	-0.0043
495.808	-0.0031
496.161	-0.0041
496.514	-0.0041
496.867	-0.0052
497.22	-0.0041
497.572	-0.0059
497.925	-0.0044
498.278	-0.0041
498.63	-0.004
498.983	-0.0086
499.335	-0.0085
499.688	-0.0067
500.04	-0.0036
500.393	-0.0043
500.745	-0.0056
501.097	-0.0072
501.449	-0.0072
501.802	-0.0068
502.154	-0.0061
502.506	-0.005
502.858	-0.0038
503.21	-0.0017
503.562	-0.0042
503.914	-0.0057
504.266	-0.0067
504.618	-0.0058
504.969	-0.0057
505.321	-0.0068
505.673	-0.0046
506.025	-0.0045
506.376	-0.0041
506.728	-0.0039
507.079	-0.0043
507.431	-0.0037
507.782	-0.0043
508.134	-0.0032
508.485	-0.0025
508.836	-0.0011
509.188	-0.0032
509.539	-0.0045
509.89	-0.0052
510.241	-0.0031
510.592	-0.0042
510.943	-0.0048
511.294	-0.0048
511.645	-0.0041
511.996	-0.0035
512.347	-0.0045
512.698	-0.005
513.049	-0.0045
513.399	-0.0023
513.75	-0.0002
514.101	-0.0029
514.451	-0.0036
514.802	-0.0068
515.152	-0.0079
515.503	-0.0067
515.853	-0.0037
516.203	-0.0017
516.554	-0.0034
516.904	-0.0054
517.254	-0.0052
517.604	-0.006
517.955	-0.0058
518.305	-0.0071
518.655	-0.0084
519.005	-0.0096
519.355	-0.009
519.705	-0.008
520.055	-0.0074
520.404	-0.008
520.754	-0.0093
521.104	-0.007
521.454	-0.0073
521.803	-0.0056
522.153	-0.0062
522.502	-0.0057
522.852	-0.0039
523.201	-0.004
523.551	-0.0022
523.9	-0.0071
524.249	-0.0101
524.599	-0.0106
524.948	-0.0061
525.297	-0.0054
525.646	-0.007
525.995	-0.0097
526.344	-0.0064
526.694	-0.006
527.042	-0.0046
527.391	-0.0077
527.74	-0.0067
528.089	-0.0065
528.438	-0.0045
528.787	-0.0054
529.135	-0.0089
529.484	-0.0103
529.833	-0.0073
530.181	-0.0063
530.53	-0.0083
530.878	-0.0131
531.227	-0.0119
531.575	-0.0113
531.923	-0.008
532.271	-0.0081
532.62	-0.0057
532.968	-0.0078
533.316	-0.0071
533.664	-0.0037
534.012	-0.0009
534.36	0.0002
534.708	-0.0028
535.056	-0.0063
535.404	-0.0056
535.752	-0.0049
536.1	-0.0054
536.447	-0.0056
536.795	-0.008
537.143	-0.0072
537.49	-0.0085
537.838	-0.0064
538.185	-0.0053
538.533	-0.006
538.88	-0.0078
539.228	-0.0069
539.575	-0.005
539.922	-0.0039
540.269	-0.0037
540.617	-0.0047
540.964	-0.0075
541.311	-0.0082
541.658	-0.0083
542.005	-0.0064
542.352	-0.0077
542.699	-0.0085
543.045	-0.0087
543.392	-0.0078
543.739	-0.0086
544.086	-0.0108
544.432	-0.0098
544.779	-0.0099
545.126	-0.0069
545.472	-0.0078
545.819	-0.006
546.165	-0.0076
546.512	-0.0073
546.858	-0.0102
547.204	-0.0103
547.55	-0.0107
547.897	-0.0099
548.243	-0.0093
548.589	-0.0095
548.935	-0.009
549.281	-0.0101
549.627	-0.0108
549.973	-0.0092
550.319	-0.0085
550.665	-0.0069
551.01	-0.0071
551.356	-0.0073
551.702	-0.0079
552.048	-0.0095
552.393	-0.0081
552.739	-0.0102
553.084	-0.0097
553.43	-0.0114
553.775	-0.0088
554.12	-0.0083
554.466	-0.01
554.811	-0.0123
555.156	-0.0132
555.502	-0.0103
555.847	-0.0074
556.192	-0.0053
556.537	-0.0047
556.882	-0.0072
557.227	-0.0101
557.572	-0.0126
557.917	-0.0113
558.261	-0.0095
558.606	-0.0062
558.951	-0.0092
559.295	-0.0083
559.64	-0.0117
559.985	-0.0059
560.329	-0.0059
560.674	-0.0034
561.018	-0.0069
561.363	-0.0087
561.707	-0.011
562.051	-0.0126
562.395	-0.0131
562.74	-0.0119
563.084	-0.0102
563.428	-0.0087
563.772	-0.0095
564.116	-0.0107
564.46	-0.0106
564.804	-0.0099
565.148	-0.0098
565.492	-0.0096
565.835	-0.0116
566.179	-0.0102
566.523	-0.0085
566.866	-0.0073
567.21	-0.0096
567.554	-0.0101
567.897	-0.0107
568.24	-0.0068
568.584	-0.0071
568.927	-0.0034
569.271	-0.0029
569.614	-0.0058
569.957	-0.0069
570.3	-0.0117
570.643	-0.0123
570.986	-0.0149
571.329	-0.0118
571.672	-0.0099
572.015	-0.0104
572.358	-0.0087
572.701	-0.0116
573.044	-0.0103
573.387	-0.0124
573.729	-0.0103
574.072	-0.0115
574.414	-0.0116
574.757	-0.0111
575.099	-0.0088
575.442	-0.0099
575.784	-0.0117
576.127	-0.0121
576.469	-0.0115
576.811	-0.011
577.153	-0.0122
577.496	-0.0128
577.838	-0.0115
578.18	-0.0109
578.522	-0.0103
578.864	-0.0122
579.206	-0.0134
579.548	-0.014
579.889	-0.0129
580.231	-0.0125
580.573	-0.0124
580.915	-0.013
581.256	-0.0118
581.598	-0.0105
581.939	-0.0084
582.281	-0.012
582.622	-0.0117
582.964	-0.0113
583.305	-0.0096
583.646	-0.011
583.988	-0.0174
584.329	-0.0163
584.67	-0.0145
585.011	-0.0113
585.352	-0.009
585.693	-0.0115
586.034	-0.0097
586.375	-0.0086
586.716	-0.0081
587.057	-0.0097
587.398	-0.0156
587.738	-0.0159
588.079	-0.0133
588.42	-0.0107
588.76	-0.0087
589.101	-0.0094
589.441	-0.0095
589.782	-0.0096
590.122	-0.0115
590.463	-0.013
590.803	-0.012
591.143	-0.01
591.483	-0.0083
591.823	-0.0081
592.164	-0.0101
592.504	-0.0137
592.844	-0.0137
593.184	-0.0101
593.523	-0.0064
593.863	-0.006
594.203	-0.011
594.543	-0.0142
594.883	-0.0137
595.222	-0.0137
595.562	-0.0152
595.901	-0.0164
596.241	-0.017
596.58	-0.0154
596.92	-0.0131
597.259	-0.0081
597.599	-0.0078
597.938	-0.0113
598.277	-0.0111
598.616	-0.0077
598.955	-0.006
599.295	-0.0074
599.634	-0.0111
599.973	-0.0154
600.312	-0.019
600.65	-0.0162
600.989	-0.0118
601.328	-0.008
601.667	-0.0114
602.005	-0.0123
602.344	-0.0124
602.683	-0.013
603.021	-0.0154
603.36	-0.0162
603.698	-0.0147
604.037	-0.0129
604.375	-0.0094
604.713	-0.0086
605.052	-0.0103
605.39	-0.0156
605.728	-0.0144
606.066	-0.0147
606.404	-0.0169
606.742	-0.0168
607.08	-0.0156
607.418	-0.0119
607.756	-0.0131
608.094	-0.0127
608.431	-0.0124
608.769	-0.0128
609.107	-0.0121
609.444	-0.0151
609.782	-0.014
610.12	-0.014
610.457	-0.0129
610.794	-0.0122
611.132	-0.0119
611.469	-0.0117
611.806	-0.0112
612.144	-0.0109
612.481	-0.0106
612.818	-0.0121
613.155	-0.01
613.492	-0.0074
613.829	-0.0054
614.166	-0.0115
614.503	-0.0115
614.84	-0.0131
615.176	-0.013
615.513	-0.0144
615.85	-0.0165
616.187	-0.0136
616.523	-0.0122
616.86	-0.0156
617.196	-0.0183
617.533	-0.021
617.869	-0.0144
618.205	-0.0114
618.542	-0.0092
618.878	-0.0095
619.214	-0.0132
619.55	-0.0146
619.886	-0.0146
620.222	-0.0132
620.558	-0.0132
620.894	-0.0131
621.23	-0.0113
621.566	-0.0135
621.902	-0.0142
622.238	-0.0149
622.573	-0.0111
622.909	-0.0115
623.244	-0.0104
623.58	-0.0124
623.916	-0.012
624.251	-0.0127
624.586	-0.0147
624.922	-0.0168
625.257	-0.0158
625.592	-0.011
625.927	-0.0092
626.263	-0.0104
626.598	-0.0138
626.933	-0.0158
627.268	-0.017
627.603	-0.0187
627.938	-0.0189
628.272	-0.0197
628.607	-0.0171
628.942	-0.015
629.277	-0.012
629.611	-0.0147
629.946	-0.0135
630.281	-0.0133
630.615	-0.0108
630.949	-0.0086
631.284	-0.01
631.618	-0.0101
631.953	-0.0139
632.287	-0.0135
632.621	-0.0113
632.955	-0.0112
633.289	-0.0082
633.623	-0.0105
633.957	-0.0078
634.291	-0.0137
634.625	-0.0133
634.959	-0.0181
635.293	-0.0179
635.627	-0.0223
635.96	-0.0183
636.294	-0.0207
636.627	-0.016
636.961	-0.017
637.294	-0.0149
637.628	-0.0182
637.961	-0.0182
638.295	-0.0198
638.628	-0.021
638.961	-0.0205
639.294	-0.014
639.628	-0.0073
639.961	-0.0068
640.294	-0.0086
640.627	-0.0129
640.96	-0.0139
641.293	-0.0152
641.625	-0.0182
641.958	-0.0183
642.291	-0.012
642.624	-0.008
642.956	-0.0103
643.289	-0.0137
643.621	-0.0133
643.954	-0.0149
644.286	-0.0209
644.619	-0.0225
644.951	-0.0182
645.283	-0.0155
645.616	-0.014
645.948	-0.0158
646.28	-0.017
646.612	-0.0152
646.944	-0.0096
647.276	-0.0025
647.608	-0.005
647.94	-0.0055
648.272	-0.0095
648.603	-0.0104
648.935	-0.0123
649.267	-0.0115
649.598	-0.0104
649.93	-0.0137
650.261	-0.0151
650.593	-0.0159
650.924	-0.0127
651.256	-0.0125
651.587	-0.014
651.918	-0.017
652.25	-0.0194
652.581	-0.0185
652.912	-0.0191
653.243	-0.0154
653.574	-0.0158
653.905	-0.0154
654.236	-0.0167
654.567	-0.0129
654.897	-0.0105
655.228	-0.0093
655.559	-0.0097
655.89	-0.0096
656.22	-0.0129
656.551	-0.0155
656.881	-0.0166
657.212	-0.0154
657.542	-0.0146
657.872	-0.0158
658.203	-0.0143
658.533	-0.0325
658.863	-0.0277
659.193	-0.0186
659.523	-0.0118
659.853	-0.0014
660.183	-0.0127
660.513	-0.0164
660.843	-0.0169
661.173	-0.0131
661.503	-0.0146
661.833	-0.0135
662.162	-0.0143
662.492	-0.0103
662.822	-0.0146
663.151	-0.0169
663.481	-0.019
663.81	-0.0194
664.139	-0.0151
664.469	-0.0132
664.798	-0.0109
665.127	-0.0137
665.456	-0.0129
665.785	-0.0114
666.114	-0.0166
666.443	-0.0224
666.772	-0.0256
667.101	-0.0216
667.43	-0.0192
667.759	-0.016
668.088	-0.0162
668.416	-0.0187
668.745	-0.0207
669.074	-0.0229
669.402	-0.0218
669.731	-0.0207
670.059	-0.0202
670.388	-0.0152
670.716	-0.0155
671.044	-0.0113
671.372	-0.0132
671.701	-0.0158
672.029	-0.0131
672.357	-0.0159
672.685	-0.0124
673.013	-0.0162
673.341	-0.0119
673.669	-0.0138
673.996	-0.0149
674.324	-0.0208
674.652	-0.0195
674.98	-0.015
675.307	-0.0146
675.635	-0.0163
675.962	-0.0174
676.29	-0.0145
676.617	-0.0126
676.945	-0.0147
677.272	-0.0146
677.599	-0.0151
677.926	-0.019
678.253	-0.0158
678.581	-0.0147
678.908	-0.012
679.235	-0.0131
679.561	-0.0094
679.888	-0.0056
680.215	-0.0065
680.542	-0.012
680.869	-0.0147
681.195	-0.0142
681.522	-0.0121
681.849	-0.0117
682.175	-0.0126
682.502	-0.0141
682.828	-0.012
683.154	-0.0128
683.481	-0.0115
683.807	-0.0151
684.133	-0.0157
684.459	-0.0174
684.785	-0.0163
685.111	-0.0179
685.437	-0.0172
685.763	-0.018
686.089	-0.0192
686.415	-0.0244
686.741	-0.0241
687.067	-0.02
687.392	-0.015
687.718	-0.0155
688.043	-0.0162
688.369	-0.0172
688.694	-0.0119
689.02	-0.0132
689.345	-0.0082
689.67	-0.017
689.996	-0.0166
690.321	-0.0205
690.646	-0.0149
690.971	-0.017
691.296	-0.0157
691.621	-0.0185
691.946	-0.0112
692.271	-0.0138
692.596	-0.0095
692.921	-0.0109
693.245	-0.0054
693.57	-0.0109
693.895	-0.0117
694.219	-0.0175
694.544	-0.0143
694.868	-0.0155
695.193	-0.0146
695.517	-0.0196
695.841	-0.0223
696.166	-0.0231
696.49	-0.0189
696.814	-0.0134
697.138	-0.0114
697.462	-0.014
697.786	-0.0152
698.11	-0.017
698.434	-0.0151
698.758	-0.0147
699.081	-0.0141
699.405	-0.0148
699.729	-0.0203
700.052	-0.0241
700.376	-0.0208
700.7	-0.0174
701.023	-0.0149
701.346	-0.0197
701.67	-0.0212
701.993	-0.0175
702.316	-0.013
702.639	-0.012
702.963	-0.0192
703.286	-0.0172
703.609	-0.0197
703.932	-0.0184
704.255	-0.0179
704.578	-0.0185
704.9	-0.0173
705.223	-0.0206
705.546	-0.0167
705.868	-0.0154
706.191	-0.0176
706.514	-0.0202
706.836	-0.0193
707.159	-0.0182
707.481	-0.0125
707.803	-0.0128
708.126	-0.0123
708.448	-0.0205
708.77	-0.0182
709.092	-0.0164
709.414	-0.0128
709.736	-0.0154
710.058	-0.0155
710.38	-0.0164
710.702	-0.0164
711.024	-0.0173
711.345	-0.0156
711.667	-0.0162
711.989	-0.0137
712.31	-0.0117
712.632	-0.0148
712.953	-0.0149
713.275	-0.0187
713.596	-0.0109
713.917	-0.0102
714.239	-0.0136
714.56	-0.0173
714.881	-0.0182
715.202	-0.0168
715.523	-0.0197
715.844	-0.021
716.165	-0.0206
716.486	-0.0206
716.807	-0.0208
717.128	-0.0177
717.448	-0.0137
717.769	-0.0145
718.09	-0.0133
718.41	-0.0134
718.731	-0.0074
719.051	-0.0081
719.372	-0.0054
719.692	-0.0141
720.012	-0.0142
720.332	-0.0184
720.653	-0.0155
720.973	-0.0161
721.293	-0.0124
721.613	-0.0104
721.933	-0.0088
722.253	-0.01
722.573	-0.0111
722.892	-0.0164
723.212	-0.0247
723.532	-0.0281
723.851	-0.0234
724.171	-0.0182
724.491	-0.0208
724.81	-0.0199
725.129	-0.0159
725.449	-0.0114
725.768	-0.0148
726.087	-0.0181
726.407	-0.0177
726.726	-0.0137
727.045	-0.0085
727.364	-0.0106
727.683	-0.0078
728.002	-0.0138
728.321	-0.0124
728.64	-0.0149
728.958	-0.012
729.277	-0.0143
729.596	-0.0174
729.914	-0.0224
730.233	-0.018
730.551	-0.0195
730.87	-0.0173
731.188	-0.0169
731.507	-0.0164
731.825	-0.0173
732.143	-0.0212
732.461	-0.0189
732.779	-0.0142
733.097	-0.0167
733.415	-0.017
733.733	-0.0204
734.051	-0.0175
734.369	-0.0165
734.687	-0.013
735.005	-0.0099
735.322	-0.0111
735.64	-0.0174
735.957	-0.0121
736.275	-0.0088
736.592	-0.0055
736.91	-0.0114
737.227	-0.014
737.544	-0.014
737.862	-0.0133
738.179	-0.0162
738.496	-0.0169
738.813	-0.0185
739.13	-0.0182
739.447	-0.0133
739.764	-0.0185
740.081	-0.0182
740.398	-0.0217
740.714	-0.014
741.031	-0.012
741.348	-0.0135
741.664	-0.0169
741.981	-0.0194
742.297	-0.0154
742.614	-0.0145
742.93	-0.0151
743.246	-0.0174
743.563	-0.0183
743.879	-0.0206
744.195	-0.0213
744.511	-0.0237
744.827	-0.0197
745.143	-0.0246
745.459	-0.0247
745.775	-0.0222
746.091	-0.0175
746.406	-0.014
746.722	-0.0181
747.038	-0.0203
747.353	-0.0215
747.669	-0.0177
747.984	-0.0166
748.3	-0.0186
748.615	-0.0278
748.93	-0.0265
749.246	-0.0255
749.561	-0.0181
749.876	-0.0229
750.191	-0.0226
750.506	-0.0262
750.821	-0.0168
751.136	-0.0161
751.451	-0.0108
751.766	-0.0165
752.08	-0.0189
752.395	-0.0168
752.71	-0.0189
753.024	-0.0158
753.339	-0.0143
753.653	-0.0113
753.968	-0.0155
754.282	-0.0172
754.596	-0.0161
754.911	-0.0137
755.225	-0.0136
755.539	-0.0171
755.853	-0.0157
756.167	-0.0165
756.481	-0.0197
756.795	-0.0242
757.109	-0.026
757.423	-0.0221
757.736	-0.0165
758.05	-0.02
758.364	-0.0169
758.677	-0.0204
758.991	-0.0177
759.304	-0.0205
759.618	-0.0182
759.931	-0.0155
760.244	-0.0166
760.558	-0.0155
760.871	-0.0152
761.184	-0.0121
761.497	-0.0095
761.81	-0.0121
762.123	-0.0167
762.436	-0.0221
762.749	-0.0187
763.062	-0.0171
763.374	-0.0162
763.687	-0.0183
764	-0.0161
764.312	-0.0109
764.625	-0.0122
764.937	-0.0142
765.25	-0.0192
765.562	-0.0165
765.874	-0.0161
766.186	-0.0164
766.499	-0.0175
766.811	-0.0203
767.123	-0.0241
767.435	-0.0238
767.747	-0.0215
768.059	-0.0174
768.37	-0.0191
768.682	-0.0183
768.994	-0.023
769.306	-0.0226
769.617	-0.0235
769.929	-0.0155
770.24	-0.0124
770.552	-0.017
770.863	-0.025
771.174	-0.0229
771.486	-0.0197
771.797	-0.0162
772.108	-0.0208
772.419	-0.0201
772.73	-0.0225
773.041	-0.0215
773.352	-0.0216
773.663	-0.0162
773.974	-0.0147
774.285	-0.0142
774.595	-0.0168
774.906	-0.0153
775.217	-0.0154
775.527	-0.0149
775.838	-0.016
776.148	-0.0151
776.458	-0.0133
776.769	-0.0136
777.079	-0.0151
777.389	-0.0191
777.699	-0.0185
778.009	-0.0176
778.319	-0.0155
778.629	-0.0106
778.939	-0.0118
779.249	-0.0114
779.559	-0.017
779.869	-0.0188
780.178	-0.0217
780.488	-0.0268
780.798	-0.0249
781.107	-0.0197
781.417	-0.0169
781.726	-0.0168
782.035	-0.0227
782.345	-0.0172
782.654	-0.0179
782.963	-0.0137
783.272	-0.0187
783.581	-0.0186
783.89	-0.0181
784.199	-0.0172
784.508	-0.0174
784.817	-0.023
785.126	-0.0278
785.434	-0.0245
785.743	-0.0179
786.052	-0.0141
786.36	-0.0216
786.669	-0.0223
786.977	-0.0214
787.285	-0.0173
787.594	-0.017
787.902	-0.0145
788.21	-0.0132
788.518	-0.017
788.826	-0.018
789.135	-0.0207
789.442	-0.021
789.75	-0.0203
790.058	-0.0187
790.366	-0.0206
790.674	-0.0287
790.981	-0.025
791.289	-0.0188
791.597	-0.0166
791.904	-0.0211
792.212	-0.027
792.519	-0.0252
792.826	-0.0259
793.134	-0.0233
793.441	-0.0192
793.748	-0.0131
794.055	-0.0134
794.362	-0.0183
794.669	-0.0229
794.976	-0.0223
795.283	-0.0218
795.59	-0.0176
795.897	-0.0179
796.203	-0.0202
796.51	-0.0252
796.817	-0.0247
797.123	-0.0166
797.43	-0.0145
797.736	-0.0156
798.042	-0.0195
798.349	-0.0196
798.655	-0.0121
798.961	-0.0135
799.267	-0.0154
799.573	-0.0228
799.879	-0.0298
800.185	-0.0245
800.491	-0.018
800.797	-0.0143
801.103	-0.0183
801.408	-0.0229
801.714	-0.0173
802.02	-0.0147
802.325	-0.0142
802.631	-0.0167
802.936	-0.02
803.242	-0.0189
803.547	-0.0258
803.852	-0.0248
804.157	-0.0291
804.462	-0.024
804.768	-0.0214
805.073	-0.0225
805.378	-0.0244
805.682	-0.0263
805.987	-0.0235
806.292	-0.0151
806.597	-0.0089
806.902	-0.0103
807.206	-0.0169
807.511	-0.0232
807.815	-0.0221
808.12	-0.0238
808.424	-0.0177
808.728	-0.0146
809.033	-0.0148
809.337	-0.0256
809.641	-0.0214
809.945	-0.0176
810.249	-0.0112
810.553	-0.0169
810.857	-0.0195
811.161	-0.0207
811.465	-0.0223
811.768	-0.023
812.072	-0.0245
812.376	-0.0248
812.679	-0.0287
812.983	-0.0223
813.286	-0.0239
813.59	-0.0196
813.893	-0.0225
814.196	-0.0205
814.499	-0.0198
814.803	-0.0213
815.106	-0.0237
815.409	-0.0256
815.712	-0.0193
816.015	-0.0194
816.318	-0.027
816.62	-0.0313
816.923	-0.0285
817.226	-0.0249
817.528	-0.0219
817.831	-0.0216
818.133	-0.0078
818.436	-0.0118
818.738	-0.0083
819.041	-0.0216
819.343	-0.0182
819.645	-0.0228
819.947	-0.0153
820.249	-0.0199
820.551	-0.0181
820.853	-0.0191
821.155	-0.0185
821.457	-0.0122
821.759	-0.0135
822.061	-0.0131
822.362	-0.0181
822.664	-0.0266
822.966	-0.0195
823.267	-0.0218
823.569	-0.0152
823.87	-0.0279
824.171	-0.0277
824.473	-0.0283
824.774	-0.0199
825.075	-0.0188
825.376	-0.0137
825.677	-0.012
825.978	-0.0119
826.279	-0.0203
826.58	-0.0222
826.881	-0.025
827.181	-0.0222
827.482	-0.0248
827.783	-0.0226
828.083	-0.0333
828.384	-0.0366
828.684	-0.042
828.985	-0.0261
829.285	-0.0227
829.585	-0.0191
829.885	-0.0258
830.185	-0.0333
830.486	-0.0313
830.786	-0.0219
831.086	-0.0102
831.385	-0.0121
831.685	-0.0187
831.985	-0.0299
832.285	-0.0308
832.585	-0.0293
832.884	-0.0204
833.184	-0.0188
833.483	-0.0242
833.783	-0.0236
834.082	-0.0284
834.381	-0.0295
834.681	-0.0294
834.98	-0.0219
835.279	-0.0224
835.578	-0.0233
835.877	-0.0246
836.176	-0.0228
836.475	-0.019
836.774	-0.0199
837.072	-0.0157
837.371	-0.0144
837.67	-0.016
837.968	-0.0172
838.267	-0.0215
838.565	-0.0144
838.864	-0.0097
839.162	-0.022
839.46	-0.0378
839.759	-0.0346
840.057	-0.019
840.355	-0.0064
840.653	-0.0169
840.951	-0.0216
841.249	-0.0254
841.547	-0.0147
841.845	-0.0101
842.142	-0.0024
842.44	-0.0158
842.738	-0.0193
843.035	-0.0338
843.333	-0.0245
843.63	-0.022
843.928	-0.0031
844.225	0.0009
844.522	-0.0035
844.82	-0.0192
845.117	-0.0294
845.414	-0.0262
845.711	-0.0181
846.008	-0.0116
846.305	-0.0213
846.602	-0.0351
846.898	-0.0393
847.195	-0.0287
847.492	-0.016
847.788	-0.0174
848.085	-0.0183
848.382	-0.0188
848.678	-0.0263
848.974	-0.0298
849.271	-0.0218
849.567	-0.0198
849.863	-0.0327
850.159	-0.0473
850.455	-0.0367
850.751	-0.0199
851.047	-0.0115
851.343	-0.0275
851.639	-0.0218
851.935	-0.0366
852.23	-0.0253
852.526	-0.0369
852.822	-0.0343
853.117	-0.0294
853.413	-0.0265
853.708	-0.0348
854.003	-0.0196
854.299	-0.0153
854.594	-0.0031
854.889	-0.028
855.184	-0.0366
855.479	-0.0276
855.774	-0.0155
856.069	-0.0255
856.364	-0.0313
856.659	-0.0342
856.954	-0.0114
857.248	-0.0112
857.543	-0.0092
857.837	-0.0188
858.132	-0.0152
858.426	-0.0252
858.721	-0.0329
859.015	-0.0341
859.309	-0.0306
859.604	-0.0217
859.898	-0.0099
860.192	0.002
860.486	-0.0024
860.78	-0.0169
861.074	-0.0294
861.367	-0.0325
861.661	-0.0238
861.955	-0.0294
862.248	-0.0107
862.542	-0.0205
862.836	-0.0042
863.129	-0.021
863.422	-0.0158
863.716	-0.0252
864.009	-0.0101
864.302	-0.0163
864.595	-0.0237
864.889	-0.0339
865.182	-0.0345
865.475	-0.0302
865.767	-0.0453
866.06	-0.043
866.353	-0.0432
866.646	-0.0166
866.938	-0.0396
867.231	-0.0452
867.524	-0.0522
867.816	-0.0163
868.109	0.001
868.401	-0.0034
868.693	-0.0059
868.985	-0.025
869.278	-0.0209
869.57	-0.0363
869.862	-0.0505
870.154	-0.0598
870.446	-0.0571
870.738	-0.03
871.029	-0.0402
871.321	-0.0275
871.613	-0.0108
871.904	-0.0123
872.196	-0.0245
872.487	-0.0366
872.779	-0.0262
873.07	-0.0217
873.362	-0.0311
873.653	-0.0221
873.944	-0.0288
874.235	-0.0455
874.526	-0.0591
874.817	-0.0679
875.108	-0.0593
875.399	-0.0408
875.69	-0.0238
875.981	-0.033
876.271	-0.0531
876.562	-0.0671
876.853	-0.0477
877.143	-0.0418
877.434	-0.0418
877.724	-0.0681
878.014	-0.0522
878.305	-0.048
878.595	0.0015
878.885	-0.0094
879.175	-0.0303
879.465	-0.0781
879.755	-0.0612
880.045	-0.037
880.335	-0.0265
880.624	-0.0463
880.914	-0.0463
