Data from 9SS05MI_071717_1a_Absorbance_21-31-03-700.txt Node
Date: Tue Jul 18 21:31:03 MDT 2017
User: Tank Lab
Spectrometer: FLMS01220
Trigger mode: 0
Integration Time (sec): 1.000000E-1
Scans to average: 10
Electric dark correction enabled: true
Nonlinearity correction enabled: false
Boxcar width: 1
XAxis mode: Wavelengths
Number of Pixels in Spectrum: 2048
>>>>>Begin Spectral Data<<<<<
179.47	0.279
179.856	0.279
180.241	0.538
180.626	0.0593
181.011	0.3315
181.396	0.142
181.781	0.8616
182.166	-0
182.551	0.1882
182.936	0.2997
183.321	-0
183.706	0.2358
184.091	0.1448
184.476	0.6018
184.86	-0.0806
185.245	0.3202
185.63	-0.271
186.015	0.2265
186.399	-0.3882
186.784	-0
187.169	0.1948
187.553	-0.0095
187.938	-0.0417
188.322	0.1526
188.707	0.1623
189.091	0.16
189.475	0.1764
189.86	0.1679
190.244	0.2296
190.629	0.244
191.013	0.3084
191.397	0.3492
191.781	0.4043
192.165	0.4455
192.55	0.486
192.934	0.5383
193.318	0.5837
193.702	0.6506
194.086	0.6959
194.47	0.7774
194.854	0.7954
195.238	0.8176
195.622	0.8403
196.006	0.8374
196.389	0.8381
196.773	0.8279
197.157	0.8306
197.541	0.8661
197.924	0.8693
198.308	0.8887
198.692	0.8654
199.075	0.8487
199.459	0.8376
199.843	0.8299
200.226	0.8157
200.61	0.785
200.993	0.7824
201.376	0.7735
201.76	0.772
202.143	0.7496
202.527	0.7323
202.91	0.7202
203.293	0.7258
203.676	0.7265
204.059	0.7153
204.443	0.7024
204.826	0.6969
205.209	0.6904
205.592	0.6719
205.975	0.662
206.358	0.6536
206.741	0.6559
207.124	0.6434
207.507	0.6396
207.89	0.6236
208.273	0.6262
208.655	0.6248
209.038	0.6241
209.421	0.6186
209.804	0.6131
210.186	0.6123
210.569	0.6052
210.951	0.596
211.334	0.5887
211.717	0.5825
212.099	0.5835
212.482	0.5789
212.864	0.5784
213.246	0.5695
213.629	0.5689
214.011	0.5625
214.393	0.5613
214.776	0.5528
215.158	0.5499
215.54	0.5446
215.922	0.5449
216.305	0.5416
216.687	0.5406
217.069	0.5363
217.451	0.5341
217.833	0.5276
218.215	0.5255
218.597	0.519
218.979	0.5159
219.361	0.5139
219.742	0.5082
220.124	0.5094
220.506	0.504
220.888	0.5005
221.27	0.496
221.651	0.4908
222.033	0.4899
222.415	0.4841
222.796	0.4806
223.178	0.4767
223.559	0.4747
223.941	0.4702
224.322	0.4664
224.704	0.4627
225.085	0.4592
225.466	0.4577
225.848	0.4496
226.229	0.4477
226.61	0.4421
226.992	0.444
227.373	0.4391
227.754	0.4359
228.135	0.4312
228.516	0.4311
228.897	0.4283
229.278	0.4259
229.659	0.4202
230.04	0.418
230.421	0.4126
230.802	0.4085
231.183	0.4052
231.564	0.4023
231.944	0.4014
232.325	0.3967
232.706	0.3958
233.087	0.39
233.467	0.3915
233.848	0.3882
234.229	0.3877
234.609	0.3835
234.99	0.381
235.37	0.3801
235.751	0.3774
236.131	0.3757
236.511	0.372
236.892	0.3682
237.272	0.3647
237.652	0.3626
238.033	0.3624
238.413	0.3625
238.793	0.3597
239.173	0.3568
239.553	0.3534
239.933	0.3526
240.313	0.3505
240.694	0.3463
241.074	0.3446
241.453	0.3431
241.833	0.3444
242.213	0.3427
242.593	0.341
242.973	0.3376
243.353	0.3354
243.732	0.3324
244.112	0.3311
244.492	0.3284
244.872	0.3271
245.251	0.3269
245.631	0.3245
246.01	0.3226
246.39	0.3182
246.769	0.3179
247.149	0.3181
247.528	0.3183
247.908	0.317
248.287	0.3157
248.666	0.3128
249.045	0.3112
249.425	0.3084
249.804	0.3077
250.183	0.3077
250.562	0.3061
250.941	0.3047
251.32	0.3014
251.699	0.3017
252.078	0.3008
252.457	0.2997
252.836	0.2979
253.215	0.2972
253.594	0.2966
253.973	0.2959
254.352	0.2945
254.731	0.2953
255.109	0.2935
255.488	0.292
255.867	0.2881
256.245	0.2874
256.624	0.2857
257.002	0.2865
257.381	0.2842
257.759	0.2838
258.138	0.2819
258.516	0.2821
258.895	0.2806
259.273	0.2785
259.651	0.2762
260.03	0.2763
260.408	0.2769
260.786	0.2757
261.164	0.2741
261.542	0.2718
261.921	0.2719
262.299	0.2683
262.677	0.2652
263.055	0.2642
263.433	0.2645
263.811	0.2648
264.188	0.2621
264.566	0.2614
264.944	0.2603
265.322	0.2592
265.7	0.2574
266.077	0.2567
266.455	0.2554
266.833	0.2547
267.21	0.2522
267.588	0.2501
267.966	0.2473
268.343	0.2463
268.721	0.2469
269.098	0.2473
269.475	0.2462
269.853	0.2454
270.23	0.2435
270.607	0.243
270.985	0.2402
271.362	0.2386
271.739	0.2361
272.116	0.234
272.494	0.2333
272.871	0.2323
273.248	0.2315
273.625	0.2304
274.002	0.2293
274.379	0.2284
274.756	0.227
275.132	0.2242
275.509	0.224
275.886	0.2227
276.263	0.2232
276.64	0.2208
277.016	0.2177
277.393	0.2158
277.77	0.2139
278.146	0.2143
278.523	0.2131
278.899	0.2129
279.276	0.2115
279.652	0.2102
280.029	0.2086
280.405	0.2067
280.782	0.2054
281.158	0.2043
281.534	0.2039
281.91	0.2018
282.287	0.2008
282.663	0.2002
283.039	0.2017
283.415	0.1997
283.791	0.1982
284.167	0.1963
284.543	0.196
284.919	0.1941
285.295	0.1929
285.671	0.191
286.047	0.1911
286.423	0.1893
286.799	0.1883
287.174	0.1865
287.55	0.1857
287.926	0.1854
288.301	0.1842
288.677	0.1826
289.053	0.1811
289.428	0.1796
289.804	0.1783
290.179	0.1769
290.555	0.1755
290.93	0.1745
291.305	0.1724
291.681	0.1722
292.056	0.1723
292.431	0.1716
292.806	0.1709
293.182	0.1698
293.557	0.1698
293.932	0.1688
294.307	0.165
294.682	0.1627
295.057	0.1608
295.432	0.1613
295.807	0.1596
296.182	0.1589
296.557	0.1579
296.932	0.1581
297.306	0.1557
297.681	0.1548
298.056	0.1557
298.43	0.156
298.805	0.1551
299.18	0.1514
299.554	0.1501
299.929	0.149
300.303	0.1481
300.678	0.1484
301.052	0.1485
301.427	0.1491
301.801	0.1478
302.175	0.1457
302.55	0.1428
302.924	0.1418
303.298	0.1406
303.672	0.1404
304.046	0.1392
304.421	0.1392
304.795	0.1389
305.169	0.1373
305.543	0.1367
305.917	0.1353
306.291	0.1357
306.664	0.1351
307.038	0.1343
307.412	0.1323
307.786	0.1305
308.16	0.1298
308.533	0.129
308.907	0.1279
309.281	0.1265
309.654	0.1264
310.028	0.1259
310.401	0.1243
310.775	0.1243
311.148	0.1239
311.522	0.1247
311.895	0.1241
312.268	0.1223
312.642	0.1208
313.015	0.1182
313.388	0.1167
313.761	0.1158
314.135	0.1147
314.508	0.1149
314.881	0.1135
315.254	0.113
315.627	0.1133
316	0.1134
316.373	0.1142
316.746	0.1119
317.118	0.1118
317.491	0.1116
317.864	0.1111
318.237	0.1097
318.61	0.1076
318.982	0.1059
319.355	0.1062
319.727	0.1051
320.1	0.1066
320.473	0.1054
320.845	0.1048
321.218	0.104
321.59	0.1036
321.962	0.1035
322.335	0.1013
322.707	0.0989
323.079	0.0983
323.452	0.098
323.824	0.0995
324.196	0.0987
324.568	0.0984
324.94	0.0957
325.312	0.0972
325.684	0.0962
326.056	0.0962
326.428	0.0908
326.8	0.0889
327.172	0.0883
327.544	0.0879
327.915	0.0892
328.287	0.0879
328.659	0.0896
329.031	0.0897
329.402	0.0906
329.774	0.09
330.145	0.0881
330.517	0.085
330.888	0.0819
331.26	0.0807
331.631	0.0821
332.003	0.0826
332.374	0.0826
332.745	0.0808
333.117	0.081
333.488	0.0814
333.859	0.08
334.23	0.0785
334.601	0.0757
334.972	0.0757
335.343	0.0764
335.714	0.0777
336.085	0.0771
336.456	0.0769
336.827	0.075
337.198	0.0753
337.569	0.0748
337.94	0.0743
338.31	0.0735
338.681	0.072
339.052	0.0711
339.422	0.0717
339.793	0.0734
340.164	0.074
340.534	0.0705
340.905	0.0682
341.275	0.0675
341.645	0.0693
342.016	0.0693
342.386	0.0693
342.756	0.0681
343.127	0.0668
343.497	0.0666
343.867	0.0659
344.237	0.0646
344.607	0.0635
344.977	0.064
345.347	0.0636
345.717	0.0621
346.087	0.0602
346.457	0.0615
346.827	0.0619
347.197	0.0624
347.567	0.061
347.936	0.0602
348.306	0.0596
348.676	0.0594
349.046	0.0603
349.415	0.0596
349.785	0.06
350.154	0.0588
350.524	0.0593
350.893	0.0587
351.263	0.0576
351.632	0.0566
352.001	0.0566
352.371	0.0567
352.74	0.0567
353.109	0.0531
353.478	0.0529
353.847	0.0535
354.217	0.0548
354.586	0.0531
354.955	0.0523
355.324	0.0528
355.693	0.0536
356.062	0.0522
356.43	0.0522
356.799	0.0526
357.168	0.053
357.537	0.0525
357.906	0.0511
358.274	0.0516
358.643	0.05
359.011	0.0499
359.38	0.049
359.749	0.0477
360.117	0.0472
360.486	0.045
360.854	0.0482
361.222	0.0475
361.591	0.0488
361.959	0.0473
362.327	0.0475
362.695	0.0459
363.064	0.0435
363.432	0.0414
363.8	0.0419
364.168	0.0434
364.536	0.0428
364.904	0.042
365.272	0.0404
365.64	0.0402
366.008	0.0403
366.376	0.0405
366.743	0.0435
367.111	0.0447
367.479	0.0435
367.847	0.0408
368.214	0.0388
368.582	0.0402
368.949	0.0407
369.317	0.042
369.684	0.0422
370.052	0.0453
370.419	0.0453
370.787	0.0446
371.154	0.0404
371.521	0.0383
371.889	0.0375
372.256	0.0379
372.623	0.036
372.99	0.0339
373.357	0.0324
373.724	0.0339
374.091	0.0334
374.458	0.033
374.825	0.03
375.192	0.0336
375.559	0.0351
375.926	0.0367
376.293	0.036
376.659	0.0349
377.026	0.0353
377.393	0.0319
377.759	0.031
378.126	0.0317
378.492	0.035
378.859	0.0334
379.225	0.0325
379.592	0.03
379.958	0.0309
380.325	0.0317
380.691	0.03
381.057	0.032
381.423	0.0298
381.79	0.0333
382.156	0.0317
382.522	0.0307
382.888	0.0279
383.254	0.0287
383.62	0.0292
383.986	0.0296
384.352	0.0282
384.718	0.029
385.084	0.0315
385.449	0.0315
385.815	0.03
386.181	0.0288
386.547	0.0287
386.912	0.0275
387.278	0.0244
387.643	0.0242
388.009	0.0256
388.374	0.0262
388.74	0.0262
389.105	0.0273
389.471	0.0283
389.836	0.0283
390.201	0.0277
390.566	0.0266
390.932	0.0276
391.297	0.0265
391.662	0.0253
392.027	0.0229
392.392	0.0205
392.757	0.0213
393.122	0.0212
393.487	0.0238
393.852	0.0238
394.217	0.0246
394.582	0.0266
394.946	0.0272
395.311	0.0287
395.676	0.0292
396.04	0.0245
396.405	0.0212
396.77	0.0179
397.134	0.0219
397.499	0.0233
397.863	0.0232
398.227	0.021
398.592	0.0212
398.956	0.021
399.32	0.0229
399.685	0.0223
400.049	0.0237
400.413	0.0255
400.777	0.0247
401.141	0.0273
401.505	0.0256
401.869	0.0239
402.233	0.018
402.597	0.0172
402.961	0.0181
403.325	0.0204
403.689	0.0216
404.053	0.022
404.416	0.0196
404.78	0.0169
405.144	0.0173
405.507	0.0185
405.871	0.0182
406.234	0.0208
406.598	0.0184
406.961	0.0201
407.325	0.0179
407.688	0.0185
408.051	0.0183
408.415	0.0158
408.778	0.0184
409.141	0.016
409.504	0.0181
409.867	0.0148
410.23	0.0152
410.593	0.014
410.956	0.0181
411.319	0.019
411.682	0.0183
412.045	0.0164
412.408	0.0164
412.771	0.0161
413.134	0.0146
413.496	0.0147
413.859	0.0158
414.222	0.0166
414.584	0.016
414.947	0.0169
415.309	0.0166
415.672	0.0165
416.034	0.0153
416.396	0.0168
416.759	0.0167
417.121	0.0156
417.483	0.0145
417.846	0.0152
418.208	0.0173
418.57	0.0166
418.932	0.0155
419.294	0.0152
419.656	0.0132
420.018	0.0144
420.38	0.0138
420.742	0.0161
421.104	0.0149
421.466	0.0132
421.827	0.0111
422.189	0.0099
422.551	0.0113
422.912	0.0148
423.274	0.0185
423.636	0.0186
423.997	0.0174
424.359	0.015
424.72	0.0152
425.081	0.0136
425.443	0.0128
425.804	0.011
426.165	0.0107
426.527	0.0084
426.888	0.0091
427.249	0.0125
427.61	0.0184
427.971	0.0154
428.332	0.014
428.693	0.0084
429.054	0.0101
429.415	0.0095
429.776	0.0112
430.137	0.0134
430.498	0.0135
430.858	0.0149
431.219	0.0154
431.58	0.016
431.94	0.0171
432.301	0.0179
432.661	0.0157
433.022	0.0135
433.382	0.0123
433.743	0.01
434.103	0.0088
434.463	0.0023
434.824	0.0039
435.184	0.0054
435.544	0.0095
435.904	0.0096
436.264	0.0084
436.624	0.01
436.985	0.0113
437.345	0.0129
437.704	0.0108
438.064	0.0097
438.424	0.0074
438.784	0.0091
439.144	0.0157
439.504	0.0139
439.863	0.0105
440.223	0.0022
440.583	0.0046
440.942	0.0093
441.302	0.0109
441.661	0.0103
442.021	0.0067
442.38	0.0046
442.739	0.0053
443.099	0.0048
443.458	0.0071
443.817	0.0074
444.176	0.0101
444.536	0.0087
444.895	0.0102
445.254	0.0094
445.613	0.0115
445.972	0.0074
446.331	0.0085
446.69	0.0053
447.049	0.0084
447.407	0.0051
447.766	0.007
448.125	0.0053
448.484	0.0084
448.842	0.0106
449.201	0.0111
449.559	0.0089
449.918	0.0059
450.276	0.0062
450.635	0.0084
450.993	0.0082
451.352	0.0088
451.71	0.0051
452.068	0.0053
452.426	0.0067
452.785	0.0083
453.143	0.0091
453.501	0.0088
453.859	0.0098
454.217	0.0103
454.575	0.0079
454.933	0.0059
455.291	0.0063
455.649	0.0033
456.006	0.0023
456.364	0.0034
456.722	0.0021
457.079	0.0075
457.437	0.0073
457.795	0.0137
458.152	0.0111
458.51	0.0079
458.867	0.0075
459.225	0.0103
459.582	0.0132
459.939	0.0075
460.297	0.0026
460.654	-0.0003
461.011	0.002
461.368	0.0065
461.725	0.0061
462.082	0.0061
462.44	0.0058
462.797	0.0048
463.153	0.0081
463.51	0.0058
463.867	0.0096
464.224	0.0048
464.581	0.0013
464.938	-0.0006
465.294	0.0034
465.651	0.0073
466.008	0.0079
466.364	0.0065
466.721	0.0072
467.077	0.0073
467.434	0.0087
467.79	0.0095
468.146	0.0101
468.503	0.0135
468.859	0.0073
469.215	0.0029
469.571	-0.0028
469.927	0.0001
470.284	0.0021
470.64	0.0085
470.996	0.0119
471.352	0.0141
471.707	0.0085
472.063	0.0055
472.419	0.0044
472.775	0.0029
473.131	0.0082
473.486	0.0092
473.842	0.0091
474.198	0.0039
474.553	0.0053
474.909	0.0086
475.264	0.0092
475.62	0.008
475.975	0.0068
476.331	0.0067
476.686	0.006
477.041	0.0066
477.396	0.0109
477.752	0.014
478.107	0.0129
478.462	0.0072
478.817	0.0036
479.172	0.0068
479.527	0.0084
479.882	0.0064
480.237	0.0034
480.591	0.0041
480.946	0.0049
481.301	0.0046
481.656	0.0011
482.01	0.0026
482.365	0.0001
482.72	0.0063
483.074	0.0101
483.429	0.0123
483.783	0.0056
484.137	0.0059
484.492	0.0053
484.846	0.0074
485.2	-0.0007
485.555	-0.0026
485.909	-0.0017
486.263	0.0029
486.617	0.0025
486.971	0.0034
487.325	0.0075
487.679	0.0122
488.033	0.0078
488.387	0.0126
488.741	0.0138
489.094	0.0071
489.448	-0.0012
489.802	0.0008
490.156	0.0096
490.509	0.0051
490.863	-0.0028
491.216	0.0007
491.57	0.0035
491.923	0.0065
492.277	0.0022
492.63	0.0019
492.983	0.001
493.337	0.0025
493.69	0.0057
494.043	0.0059
494.396	0.0032
494.749	0.0007
495.102	-0.0002
495.455	0.0027
495.808	0.0015
496.161	0.0053
496.514	0.0034
496.867	0.0045
497.22	0.0019
497.572	-0.0004
497.925	0.0011
498.278	-0.003
498.63	0.0059
498.983	0.0056
499.335	0.0078
499.688	-0.0032
500.04	-0.0058
500.393	-0.007
500.745	-0.0017
501.097	0.0005
501.449	-0.0002
501.802	-0.0009
502.154	0.0007
502.506	0.0009
502.858	0.002
503.21	-0.0017
503.562	0.0002
503.914	0.0026
504.266	0.0067
504.618	0.003
504.969	0.0032
505.321	-0.0025
505.673	0.002
506.025	0.0004
506.376	0.0033
506.728	0
507.079	-0.001
507.431	-0.0014
507.782	0.0011
508.134	0.002
508.485	0.0012
508.836	0.0003
509.188	0.0019
509.539	0.0048
509.89	0.0013
510.241	-0.0039
510.592	-0.0001
510.943	-0.0003
511.294	0.0017
511.645	-0.0062
511.996	-0.003
512.347	0.0001
512.698	0.0045
513.049	0.0051
513.399	0.0041
513.75	0.001
514.101	0.0024
514.451	0.0038
514.802	0.0047
515.152	0.002
515.503	0.0005
515.853	-0.0004
516.203	-0.0023
516.554	-0.004
516.904	-0.0006
517.254	0.0002
517.604	-0.0001
517.955	-0.0057
518.305	-0.0006
518.655	-0.0007
519.005	0.0026
519.355	0.0038
519.705	0.0033
520.055	0.0015
520.404	-0.0006
520.754	0.0015
521.104	0.0052
521.454	0.0055
521.803	0.0044
522.153	0.0005
522.502	-0.0049
522.852	-0.0073
523.201	-0.005
523.551	-0.0022
523.9	0.0042
524.249	0.0056
524.599	0.0038
524.948	-0.0015
525.297	-0.0015
525.646	-0.0007
525.995	0.0015
526.344	-0.0014
526.694	0.0015
527.042	-0.0012
527.391	-0.001
527.74	-0.0021
528.089	0.0004
528.438	0.0038
528.787	0.003
529.135	0.0018
529.484	0.0039
529.833	0.0042
530.181	0.0025
530.53	-0.001
530.878	-0.002
531.227	0.0033
531.575	0.0033
531.923	-0.002
532.271	-0.0039
532.62	-0.003
532.968	0.0012
533.316	-0.0003
533.664	-0.0009
534.012	0.003
534.36	0.0054
534.708	0.0014
535.056	-0.0019
535.404	-0.0066
535.752	-0.0024
536.1	-0.0023
536.447	0.0014
536.795	0.0012
537.143	0.0014
537.49	-0.0019
537.838	-0.0035
538.185	-0.0036
538.533	-0.003
538.88	-0.001
539.228	-0.0013
539.575	-0.0014
539.922	-0.0041
540.269	0.0028
540.617	0.0022
540.964	0.0013
541.311	-0.0023
541.658	-0.0002
542.005	0.0028
542.352	-0.0022
542.699	-0.0037
543.045	-0.0071
543.392	-0.0032
543.739	-0.0022
544.086	-0.0006
544.432	-0.0036
544.779	-0.004
545.126	-0.0052
545.472	-0.0058
545.819	-0.0073
546.165	-0.0059
546.512	-0.0019
546.858	0.0035
547.204	0.0035
547.55	0.0013
547.897	-0.0024
548.243	-0.0082
548.589	-0.0062
548.935	-0.0067
549.281	-0.0015
549.627	-0.0028
549.973	0.0006
550.319	-0.0007
550.665	0.0009
551.01	-0.0033
551.356	-0.0055
551.702	-0.0077
552.048	-0.0144
552.393	-0.0098
552.739	-0.0056
553.084	0.0039
553.43	0.0013
553.775	-0.0037
554.12	-0.0047
554.466	0.0017
554.811	0.0062
555.156	0.004
555.502	0.0017
555.847	-0.0038
556.192	-0.0024
556.537	-0.005
556.882	-0.0026
557.227	-0.0083
557.572	-0.0057
557.917	0.0027
558.261	0.0026
558.606	-0.0041
558.951	-0.0117
559.295	-0.0127
559.64	-0.0057
559.985	-0.0077
560.329	-0.0017
560.674	-0.0037
561.018	-0.0053
561.363	-0.0076
561.707	-0.0119
562.051	-0.0086
562.395	-0.0005
562.74	0.003
563.084	0.0043
563.428	0.0014
563.772	0.0028
564.116	-0.0021
564.46	-0.0055
564.804	-0.0044
565.148	-0.0092
565.492	-0.0062
565.835	-0.0039
566.179	0.0045
566.523	-0.0022
566.866	-0.0084
567.21	-0.0084
567.554	-0.0026
567.897	0.0003
568.24	-0.005
568.584	-0.0071
568.927	-0.0063
569.271	-0.0068
569.614	-0.005
569.957	-0.0035
570.3	0.002
570.643	0.0023
570.986	0.0012
571.329	0.0064
571.672	0.0091
572.015	0.006
572.358	0.0011
572.701	0.0034
573.044	-0.0014
573.387	-0.0017
573.729	0.0009
574.072	0.0081
574.414	0.0073
574.757	0.0072
575.099	-0.0086
575.442	-0.0145
575.784	-0.0031
576.127	0.0093
576.469	0.0097
576.811	-0.0039
577.153	-0.0016
577.496	-0.0001
577.838	0.0027
578.18	-0.0135
578.522	-0.0154
578.864	-0.0178
579.206	0.0059
579.548	0.0072
579.889	-0.0076
580.231	0.0053
580.573	0.0184
580.915	0.0152
581.256	-0.0106
581.598	-0.0292
581.939	-0.0312
582.281	-0.0022
582.622	-0.0047
582.964	0.001
583.305	-0.0128
583.646	-0.0019
583.988	0.0389
584.329	0.0256
584.67	0.0096
585.011	-0.0219
585.352	-0.0317
585.693	-0.0176
586.034	-0.0248
586.375	-0.0201
586.716	-0.0138
587.057	-0.0037
587.398	0.0133
587.738	0.022
588.079	0.0105
588.42	0.0052
588.76	-0.0182
589.101	-0.0148
589.441	-0.0206
589.782	-0.007
590.122	0.0038
590.463	0.0058
590.803	-0.0063
591.143	-0.0067
591.483	-0.0164
591.823	-0.0171
592.164	-0.0197
592.504	-0.0029
592.844	0.0005
593.184	-0.0063
593.523	-0.0192
593.863	-0.0138
594.203	-0.0056
594.543	0.006
594.883	-0.0039
595.222	0.0029
595.562	0.0198
595.901	0.0192
596.241	0.0045
596.58	-0.0143
596.92	-0.0217
597.259	-0.0246
597.599	-0.0136
597.938	0.006
598.277	0.0059
598.616	-0.0122
598.955	-0.0189
599.295	-0.0117
599.634	0.0056
599.973	0.0077
600.312	0.011
600.65	-0.004
600.989	-0.005
601.328	-0.0004
601.667	0.0243
602.005	0.0054
602.344	-0.0025
602.683	-0.0058
603.021	0.0037
603.36	-0.0067
603.698	-0.0191
604.037	-0.0206
604.375	-0.0171
604.713	-0.0211
605.052	-0.0164
605.39	-0.0129
605.728	-0.0118
606.066	0.0108
606.404	0.0131
606.742	0.0088
607.08	-0.0047
607.418	-0.0154
607.756	-0.0063
608.094	-0.001
608.431	0.0076
608.769	0.0145
609.107	-0.0051
609.444	0.0023
609.782	-0.0091
610.12	0.0068
610.457	-0.001
610.794	-0.0182
611.132	-0.0214
611.469	-0.0216
611.806	-0.0133
612.144	-0.0207
612.481	-0.0126
612.818	0.0041
613.155	-0.0028
613.492	-0.0121
613.829	-0.0165
614.166	-0.0025
614.503	-0.0006
614.84	-0.0065
615.176	-0.007
615.513	-0.003
615.85	-0
616.187	0.0047
616.523	-0.0033
616.86	-0.0066
617.196	-0.0018
617.533	0.0156
617.869	0.0073
618.205	-0.0056
618.542	-0.0243
618.878	-0.0298
619.214	-0.0187
619.55	-0.0145
619.886	-0.0058
620.222	-0.0195
620.558	-0.01
620.894	0.0006
621.23	0.0008
621.566	-0.0076
621.902	-0.0145
622.238	-0.0195
622.573	-0
622.909	-0.0059
623.244	0.0007
623.58	-0.0216
623.916	-0.0226
624.251	-0.0097
624.586	0.0119
624.922	0.0146
625.257	-0.006
625.592	-0.0188
625.927	-0.0156
626.263	-0.0125
626.598	-0.008
626.933	-0.0058
627.268	0.002
627.603	-0.0091
627.938	-0.0197
628.272	-0.0154
628.607	-0.0146
628.942	-0.0088
629.277	-0.0162
629.611	-0.0011
629.946	0.0091
630.281	0.0021
630.615	-0.0061
630.949	-0.0197
631.284	-0.0131
631.618	-0.0037
631.953	0.0079
632.287	0.0087
632.621	-0.0056
632.955	-0.0121
633.289	-0.0107
633.623	-0.0051
633.957	-0.0029
634.291	-0.0096
634.625	-0.0026
634.959	-0.0121
635.293	-0.0009
635.627	-0.003
635.96	0.0026
636.294	-0.0069
636.627	-0.0075
636.961	0.0009
637.294	0.0005
637.628	-0.0094
637.961	-0.0148
638.295	-0.0091
638.628	0.0021
638.961	0.0032
639.294	0.0032
639.628	-0.0061
639.961	-0.01
640.294	-0.0126
640.627	-0.0071
640.96	-0.0084
641.293	-0.0053
641.625	-0.0074
641.958	-0.0075
642.291	-0.0156
642.624	-0.0118
642.956	-0.0131
643.289	-0.0084
643.621	-0.0102
643.954	-0.0071
644.286	-0.0102
644.619	-0.0139
644.951	-0.0182
645.283	-0.0166
645.616	-0.0128
645.948	-0.0093
646.28	-0.003
646.612	-0.0039
646.944	-0.0031
647.276	-0.0111
647.608	-0.0093
647.94	-0.0079
648.272	-0.0066
648.603	-0.0075
648.935	-0.0094
649.267	-0.0037
649.598	-0.005
649.93	-0.0061
650.261	-0.0086
650.593	-0.0028
650.924	0.0089
651.256	0.0096
651.587	0.0021
651.918	-0.0082
652.25	-0.0122
652.581	-0.0106
652.912	-0.0134
653.243	-0.0124
653.574	-0.0104
653.905	-0.0039
654.236	-0.0051
654.567	-0.0048
654.897	-0.0046
655.228	-0.0075
655.559	-0.0011
655.89	-0.0006
656.22	-0.0025
656.551	-0.0171
656.881	-0.0221
657.212	-0.0168
657.542	-0.0082
657.872	0.0002
658.203	0.0119
658.533	0.1359
658.863	0.0775
659.193	0.0144
659.523	-0.0491
659.853	-0.1152
660.183	-0.0673
660.513	-0.0312
660.843	-0.0162
661.173	-0.0101
661.503	-0.0089
661.833	-0.0074
662.162	-0.0111
662.492	-0.0145
662.822	-0.0165
663.151	-0.0156
663.481	-0.0119
663.81	-0.0082
664.139	-0.004
664.469	-0.0034
664.798	-0.0033
665.127	-0.0047
665.456	-0.0046
665.785	-0.0061
666.114	-0.0054
666.443	-0.0068
666.772	-0.0038
667.101	-0.0058
667.43	-0.0023
667.759	-0.0059
668.088	-0.0048
668.416	-0.0112
668.745	-0.0103
669.074	-0.014
669.402	-0.0081
669.731	-0.0062
670.059	-0.0013
670.388	-0.0081
670.716	-0.0106
671.044	-0.0118
671.372	-0.0109
671.701	-0.0049
672.029	0.0002
672.357	0.0002
672.685	-0.0023
673.013	-0.0028
673.341	-0.0066
673.669	-0.0095
673.996	-0.0088
674.324	0.0111
674.652	0.0097
674.98	0.0019
675.307	-0.0107
675.635	-0.0149
675.962	-0.0125
676.29	-0.0166
676.617	-0.0151
676.945	-0.0142
677.272	-0.013
677.599	-0.0071
677.926	-0.0072
678.253	-0.002
678.581	-0.0083
678.908	-0.0053
679.235	0.0002
679.561	-0.004
679.888	-0.0129
680.215	-0.0151
680.542	0.0071
680.869	0.0051
681.195	-0.0051
681.522	-0.0164
681.849	-0.0113
682.175	0.0002
682.502	0.0028
682.828	0.0004
683.154	-0.007
683.481	-0.0144
683.807	-0.0153
684.133	-0.0068
684.459	-0.0044
684.785	0.0018
685.111	-0.0075
685.437	-0.0087
685.763	-0.0163
686.089	-0.0128
686.415	-0.0074
686.741	-0.0034
687.067	0.0001
687.392	-0.0025
687.718	0.0011
688.043	0.002
688.369	0.0031
688.694	-0.0066
689.02	-0.0143
689.345	-0.0179
689.67	-0.0128
689.996	-0.0084
690.321	-0.0064
690.646	-0.0098
690.971	-0.01
691.296	-0.0078
691.621	-0.0052
691.946	-0.0025
692.271	0.0011
692.596	0.0015
692.921	-0.0014
693.245	-0.0131
693.57	-0.0082
693.895	0.0049
694.219	0.0114
694.544	0.0014
694.868	-0.013
695.193	-0.0149
695.517	-0.0042
695.841	-0.0018
696.166	-0.0031
696.49	-0.0079
696.814	-0.0104
697.138	-0.0079
697.462	-0.0047
697.786	0
698.11	0.0072
698.434	-0.0031
698.758	-0.012
699.081	-0.025
699.405	-0.0113
699.729	0.0196
700.052	0.0208
700.376	0.0073
700.7	-0.0153
701.023	-0.0219
701.346	-0.0129
701.67	-0.0087
701.993	-0.0055
702.316	-0.0047
702.639	-0.0016
702.963	-0.0049
703.286	-0.0082
703.609	-0.0069
703.932	-0.0073
704.255	-0.0096
704.578	-0.0106
704.9	-0.0045
705.223	-0.0011
705.546	-0.0019
705.868	-0.008
706.191	-0.0146
706.514	-0.0213
706.836	-0.0183
707.159	-0.0096
707.481	-0.0072
707.803	-0.0083
708.126	-0.0144
708.448	-0.0099
708.77	-0.0067
709.092	-0.0003
709.414	0.0051
709.736	0.0091
710.058	0.0042
710.38	-0.0041
710.702	-0.0099
711.024	-0.0146
711.345	-0.0178
711.667	-0.0205
711.989	-0.0161
712.31	-0.013
712.632	-0.0076
712.953	-0.0098
713.275	-0.0054
713.596	-0.0022
713.917	-0.0034
714.239	-0.0086
714.56	-0.0131
714.881	-0.005
715.202	-0.0014
715.523	0.006
715.844	-0.0011
716.165	0.0008
716.486	-0.0083
716.807	-0.0073
717.128	-0.0069
717.448	-0.0069
717.769	-0.0083
718.09	-0.008
718.41	-0.0121
718.731	-0.0114
719.051	-0.018
719.372	-0.0125
719.692	-0.0069
720.012	0.0014
720.332	-0.0015
720.653	0.0002
720.973	0.0078
721.293	-0.0004
721.613	-0.0065
721.933	-0.0154
722.253	-0.0005
722.573	-0.0058
722.892	-0.0091
723.212	-0.0142
723.532	-0.0065
723.851	-0.0062
724.171	-0.0052
724.491	-0.0026
724.81	-0.0006
725.129	-0.004
725.449	-0.0055
725.768	-0.0081
726.087	-0.0048
726.407	-0.0094
726.726	-0.0107
727.045	-0.0152
727.364	-0.009
727.683	-0.005
728.002	0.0045
728.321	0.0005
728.64	-0.0038
728.958	-0.0065
729.277	-0.0094
729.596	-0.011
729.914	-0.0113
730.233	-0.0068
730.551	0.0012
730.87	0.0003
731.188	-0.002
731.507	-0.0094
731.825	-0.0147
732.143	-0.0157
732.461	-0.0091
732.779	-0.0088
733.097	-0.0038
733.415	0.0043
733.733	0.0165
734.051	0.0024
734.369	-0.008
734.687	-0.0254
735.005	-0.0218
735.322	-0.0182
735.64	-0.0031
735.957	0.0016
736.275	-0.0046
736.592	-0.007
736.91	-0.0102
737.227	-0.007
737.544	-0.019
737.862	-0.0141
738.179	-0.0113
738.496	0.0041
738.813	-0.006
739.13	-0.0183
739.447	-0.0256
739.764	-0.0141
740.081	-0.0054
740.398	-0.0111
740.714	-0.0153
741.031	-0.0149
741.348	-0.0063
741.664	0.0007
741.981	0.0116
742.297	0.0014
742.614	-0.0129
742.93	-0.0303
743.246	-0.025
743.563	-0.0155
743.879	-0.0086
744.195	-0.0077
744.511	-0.0045
744.827	-0.0059
745.143	0.0015
745.459	0.0024
745.775	0.0006
746.091	-0.0102
746.406	-0.0143
746.722	-0.0149
747.038	-0.0117
747.353	-0.0106
747.669	-0.0051
747.984	-0.0065
748.3	-0.0015
748.615	-0.0048
748.93	0.0041
749.246	-0.0094
749.561	-0.0103
749.876	-0.0144
750.191	-0.009
750.506	-0.0099
750.821	-0.0141
751.136	-0.0077
751.451	-0.003
751.766	-0.0043
752.08	-0.0057
752.395	-0.0068
752.71	-0.0036
753.024	-0.004
753.339	-0.0027
753.653	-0.002
753.968	0.0037
754.282	0.0048
754.596	0.001
754.911	-0.0096
755.225	-0.0088
755.539	-0.007
755.853	-0.0085
756.167	-0.0095
756.481	-0.0103
756.795	-0.0116
757.109	-0.0125
757.423	-0.0125
757.736	-0.0078
758.05	-0.0127
758.364	-0.0103
758.677	-0.0097
758.991	-0.0091
759.304	-0.0034
759.618	0.0033
759.931	0.0003
760.244	0.003
760.558	-0.005
760.871	-0.0063
761.184	-0.0232
761.497	-0.0274
761.81	-0.0214
762.123	-0.0065
762.436	-0
762.749	-0.0057
763.062	-0.0083
763.374	0.001
763.687	-0.0005
764	-0.0005
764.312	-0.0186
764.625	-0.0162
764.937	-0.021
765.25	-0.0123
765.562	-0.0015
765.874	-0.0014
766.186	0.0007
766.499	-0.0105
766.811	-0.0103
767.123	0.0012
767.435	0.0043
767.747	0.0067
768.059	-0.0065
768.37	-0.0104
768.682	-0.0189
768.994	-0.0237
769.306	-0.0205
769.617	-0.0164
769.929	-0.0111
770.24	-0.0095
770.552	0.0013
770.863	0.0059
771.174	0.0015
771.486	-0.0034
771.797	-0.0114
772.108	-0.0182
772.419	-0.0275
772.73	-0.0222
773.041	-0.0111
773.352	-0.0022
773.663	-0.0071
773.974	-0.006
774.285	-0.0131
774.595	-0.0128
774.906	-0.0142
775.217	-0.005
775.527	-0.0024
775.838	-0.0074
776.148	-0.0076
776.458	-0.0089
776.769	-0.0067
777.079	-0.0104
777.389	-0.0096
777.699	-0.0048
778.009	-0.0086
778.319	-0.0075
778.629	-0.018
778.939	-0.0139
779.249	-0.0156
779.559	-0.008
779.869	-0.0078
780.178	-0.0074
780.488	-0.0119
780.798	-0.013
781.107	-0.0088
781.417	-0.0016
781.726	-0.0009
782.035	-0.0016
782.345	-0.0049
782.654	-0.0071
782.963	-0.0078
783.272	-0.0066
783.581	0.0037
783.89	0.011
784.199	0.0045
784.508	-0.0072
784.817	-0.0217
785.126	-0.0165
785.434	-0.0142
785.743	-0.0101
786.052	-0.0091
786.36	-0.0129
786.669	-0.0116
786.977	-0.016
787.285	-0.013
787.594	-0.0122
787.902	-0.009
788.21	-0.0055
788.518	-0.0019
788.826	-0.0028
789.135	-0.0076
789.442	-0.017
789.75	-0.0215
790.058	-0.018
790.366	-0.0112
790.674	-0.0056
790.981	-0.0051
791.289	-0.0005
791.597	-0.004
791.904	-0.0105
792.212	-0.0167
792.519	-0.0191
792.826	-0.0072
793.134	-0.0087
793.441	-0.0016
793.748	-0.0025
794.055	0.008
794.362	0.0053
794.669	-0.006
794.976	-0.0116
795.283	-0.0198
795.59	-0.0117
795.897	-0.0196
796.203	-0.0155
796.51	0.0008
796.817	0.013
797.123	0.0051
797.43	-0.013
797.736	-0.018
798.042	-0.02
798.349	-0.0202
798.655	-0.0274
798.961	-0.0153
799.267	-0.0103
799.573	-0.0029
799.879	-0.0017
800.185	0.0002
800.491	-0.0094
800.797	-0.016
801.103	-0.023
801.408	-0.0167
801.714	-0.0118
802.02	-0.011
802.325	-0.0095
802.631	-0.0163
802.936	-0.0065
803.242	-0.0074
803.547	-0.0027
803.852	-0.0091
804.157	-0.0137
804.462	-0.0136
804.768	-0.0169
805.073	-0.0113
805.378	-0.0051
805.682	-0.0041
805.987	-0.0027
806.292	-0.0131
806.597	-0.0089
806.902	-0.0101
807.206	-0.0101
807.511	-0.0128
807.815	-0.0229
808.12	-0.0128
808.424	-0.0104
808.728	0.0041
809.033	0.0017
809.337	-0.0056
809.641	-0.0216
809.945	-0.0217
810.249	-0.0163
810.553	-0.0106
810.857	-0.0128
811.161	-0.0168
811.465	-0.0129
811.768	-0.0217
812.072	-0.0175
812.376	-0.0203
812.679	-0.0055
812.983	-0.0095
813.286	-0.0075
813.59	-0.0088
813.893	-0.0069
814.196	-0.0132
814.499	-0.0141
814.803	-0.0146
815.106	-0.0102
815.409	-0.019
815.712	-0.0139
816.015	-0.0062
816.318	-0.0007
816.62	-0.001
816.923	-0.0167
817.226	-0.0203
817.528	-0.0197
817.831	-0.0079
818.133	-0.0077
818.436	-0.0113
818.738	-0.0144
819.041	-0.0174
819.343	-0.0185
819.645	-0.0113
819.947	-0.0044
820.249	-0.0033
820.551	-0.0023
820.853	-0.0075
821.155	-0.0097
821.457	-0.0163
821.759	-0.014
822.061	-0.0104
822.362	-0.0093
822.664	-0.0069
822.966	-0.0035
823.267	-0.0088
823.569	-0.0121
823.87	-0.0238
824.171	-0.0233
824.473	-0.0219
824.774	-0.0128
825.075	-0.0131
825.376	-0.0127
825.677	-0.0151
825.978	-0.0123
826.279	-0.0175
826.58	-0.0199
826.881	-0.0195
827.181	-0.0212
827.482	-0.0194
827.783	-0.0293
828.083	-0.0217
828.384	-0.017
828.684	-0.0122
828.985	-0.0074
829.285	0.0028
829.585	0.0093
829.885	0.0062
830.185	0.0014
830.486	0.0009
830.786	-0.0122
831.086	-0.0208
831.385	-0.0249
831.685	-0.0084
831.985	-0.0096
832.285	-0.0129
832.585	-0.0158
832.884	-0.0201
833.184	-0.0192
833.483	-0.0255
833.783	-0.0247
834.082	-0.021
834.381	-0.0238
834.681	-0.0229
834.98	-0.0241
835.279	-0.023
835.578	-0.0129
835.877	-0.0178
836.176	-0.0157
836.475	-0.0222
836.774	-0.0089
837.072	-0.0035
837.371	-0.001
837.67	-0.0071
837.968	-0.0074
838.267	-0.0103
838.565	-0.0234
838.864	-0.0276
839.162	-0.0341
839.46	-0.0274
839.759	-0.0314
840.057	-0.0271
840.355	-0.0242
840.653	-0.0213
840.951	-0.0207
841.249	-0.0306
841.547	-0.0284
841.845	-0.0214
842.142	-0.0098
842.44	-0.0092
842.738	-0.0075
843.035	-0.0035
843.333	-0.0017
843.63	-0.0111
843.928	-0.0049
844.225	-0.013
844.522	-0.0181
844.82	-0.0254
845.117	-0.0214
845.414	0.0015
845.711	-0.0087
846.008	-0.0205
846.305	-0.0335
846.602	-0.0163
846.898	-0.014
847.195	-0.0143
847.492	-0.0264
847.788	-0.013
848.085	-0.0176
848.382	-0.0113
848.678	-0.0165
848.974	-0.0137
849.271	-0.0162
849.567	-0.0227
849.863	-0.0276
850.159	-0.0268
850.455	-0.0135
850.751	-0.0008
851.047	0.0006
851.343	-0.0006
851.639	-0.0078
851.935	-0.0043
852.23	-0.0026
852.526	-0.019
852.822	-0.0227
853.117	-0.0193
853.413	0.0024
853.708	0.0073
854.003	0.0071
854.299	-0.0116
854.594	-0.0172
854.889	-0.0279
855.184	-0.0137
855.479	-0.0122
855.774	-0.0135
856.069	-0.0214
856.364	-0.0222
856.659	-0.0175
856.954	-0.0116
857.248	-0.0228
857.543	-0.0269
857.837	-0.0335
858.132	-0.0108
858.426	-0.0145
858.721	-0.0167
859.015	-0.0336
859.309	-0.025
859.604	-0.0169
859.898	-0.0166
860.192	-0.0234
860.486	-0.0275
860.78	-0.0439
861.074	-0.0339
861.367	-0.0516
861.661	-0.016
861.955	-0.015
862.248	0
862.542	-0.0377
862.836	-0.0347
863.129	-0.0116
863.422	0.0043
863.716	-0.0086
864.009	-0.0259
864.302	-0.0071
864.595	-0.0065
864.889	-0.0005
865.182	-0.0197
865.475	-0.0186
865.767	-0.0323
866.06	-0.0314
866.353	-0.0476
866.646	-0.0097
866.938	-0.012
867.231	-0.0058
867.524	-0.028
867.816	-0.033
868.109	-0.0097
868.401	-0.0264
868.693	-0.012
868.985	-0.0303
869.278	-0.0297
869.57	-0.0384
869.862	-0.0493
870.154	-0.0609
870.446	-0.0214
870.738	-0.0119
871.029	0.0154
871.321	-0.0035
871.613	0.017
871.904	-0.0139
872.196	-0.0329
872.487	-0.0852
872.779	-0.06
873.07	-0.036
873.362	0.0077
873.653	0.0009
873.944	-0.0151
874.235	-0.0338
874.526	-0.0256
874.817	-0.0259
875.108	-0.0333
875.399	-0.0222
875.69	-0.0131
875.981	0.0154
876.271	0.0044
876.562	-0.0117
876.853	-0.0315
877.143	-0.0248
877.434	-0.0108
877.724	0.0101
878.014	0.0039
878.305	0.0124
878.595	0.002
878.885	-0.0084
879.175	-0.0033
879.465	0.006
879.755	0.0255
880.045	0.0062
880.335	0.0005
880.624	-0.0081
880.914	-0.0081
