Data from 9SS05MI_071717_1b_Absorbance_21-36-26-691.txt Node
Date: Tue Jul 18 21:36:26 MDT 2017
User: Tank Lab
Spectrometer: FLMS01220
Trigger mode: 0
Integration Time (sec): 1.000000E-1
Scans to average: 10
Electric dark correction enabled: true
Nonlinearity correction enabled: false
Boxcar width: 1
XAxis mode: Wavelengths
Number of Pixels in Spectrum: 2048
>>>>>Begin Spectral Data<<<<<
179.47	-0
179.856	-0
180.241	0.5461
180.626	-0
181.011	-0
181.396	-0
181.781	-0
182.166	-0
182.551	0.0687
182.936	0.2022
183.321	0.4758
183.706	-0.0325
184.091	-0.2168
184.476	0.1952
184.86	-0
185.245	-0.302
185.63	-0
186.015	-0.2051
186.399	-0.5271
186.784	0.5575
187.169	0.2058
187.553	-0.1789
187.938	-0.0862
188.322	0.1212
188.707	0.2101
189.091	0.2014
189.475	0.2067
189.86	0.194
190.244	0.2242
190.629	0.226
191.013	0.2685
191.397	0.3182
191.781	0.3889
192.165	0.4443
192.55	0.4851
192.934	0.535
193.318	0.5793
193.702	0.6544
194.086	0.7112
194.47	0.7721
194.854	0.7892
195.238	0.7926
195.622	0.8147
196.006	0.8176
196.389	0.8311
196.773	0.8316
197.157	0.8466
197.541	0.865
197.924	0.8674
198.308	0.8472
198.692	0.8545
199.075	0.8289
199.459	0.8379
199.843	0.8243
200.226	0.8091
200.61	0.7894
200.993	0.7809
201.376	0.7778
201.76	0.7643
202.143	0.7507
202.527	0.7469
202.91	0.7305
203.293	0.7239
203.676	0.7127
204.059	0.7104
204.443	0.7072
204.826	0.6988
205.209	0.6835
205.592	0.6673
205.975	0.6602
206.358	0.6598
206.741	0.6531
207.124	0.6438
207.507	0.6404
207.89	0.6316
208.273	0.6336
208.655	0.6299
209.038	0.6204
209.421	0.6107
209.804	0.6062
210.186	0.6089
210.569	0.6089
210.951	0.5962
211.334	0.5896
211.717	0.5849
212.099	0.5894
212.482	0.586
212.864	0.5816
213.246	0.5745
213.629	0.574
214.011	0.5643
214.393	0.5621
214.776	0.5554
215.158	0.5572
215.54	0.5534
215.922	0.5521
216.305	0.5449
216.687	0.5407
217.069	0.5338
217.451	0.5303
217.833	0.5277
218.215	0.5247
218.597	0.5223
218.979	0.5182
219.361	0.5164
219.742	0.5113
220.124	0.5103
220.506	0.5071
220.888	0.5064
221.27	0.5
221.651	0.497
222.033	0.4913
222.415	0.4876
222.796	0.4823
223.178	0.4782
223.559	0.4762
223.941	0.4726
224.322	0.4686
224.704	0.4656
225.085	0.4603
225.466	0.4583
225.848	0.4539
226.229	0.4521
226.61	0.4502
226.992	0.4481
227.373	0.4425
227.754	0.4363
228.135	0.4332
228.516	0.4348
228.897	0.433
229.278	0.4269
229.659	0.4206
230.04	0.4188
230.421	0.4153
230.802	0.411
231.183	0.4068
231.564	0.4058
231.944	0.4051
232.325	0.403
232.706	0.4008
233.087	0.3948
233.467	0.3911
233.848	0.388
234.229	0.3892
234.609	0.3862
234.99	0.3813
235.37	0.378
235.751	0.3767
236.131	0.3765
236.511	0.3722
236.892	0.3702
237.272	0.3658
237.652	0.3645
238.033	0.3601
238.413	0.3609
238.793	0.3576
239.173	0.3566
239.553	0.3538
239.933	0.3526
240.313	0.3504
240.694	0.3478
241.074	0.3459
241.453	0.3433
241.833	0.341
242.213	0.3414
242.593	0.3413
242.973	0.341
243.353	0.3382
243.732	0.3356
244.112	0.3323
244.492	0.3289
244.872	0.3275
245.251	0.3277
245.631	0.3271
246.01	0.3242
246.39	0.3201
246.769	0.3192
247.149	0.319
247.528	0.3191
247.908	0.3163
248.287	0.3152
248.666	0.3134
249.045	0.3122
249.425	0.31
249.804	0.307
250.183	0.306
250.562	0.3038
250.941	0.3042
251.32	0.3027
251.699	0.3032
252.078	0.2999
252.457	0.2987
252.836	0.297
253.215	0.2973
253.594	0.2978
253.973	0.2968
254.352	0.2959
254.731	0.296
255.109	0.2943
255.488	0.292
255.867	0.2877
256.245	0.2887
256.624	0.2876
257.002	0.2859
257.381	0.2817
257.759	0.2826
258.138	0.284
258.516	0.2849
258.895	0.282
259.273	0.2782
259.651	0.2755
260.03	0.2764
260.408	0.2759
260.786	0.2749
261.164	0.2717
261.542	0.272
261.921	0.271
262.299	0.2695
262.677	0.2674
263.055	0.2663
263.433	0.2651
263.811	0.2637
264.188	0.2619
264.566	0.2598
264.944	0.2598
265.322	0.2593
265.7	0.2591
266.077	0.2575
266.455	0.2562
266.833	0.2556
267.21	0.2545
267.588	0.2535
267.966	0.2522
268.343	0.2503
268.721	0.2497
269.098	0.2477
269.475	0.2464
269.853	0.2445
270.23	0.2433
270.607	0.2419
270.985	0.2402
271.362	0.2387
271.739	0.2371
272.116	0.2336
272.494	0.2328
272.871	0.2319
273.248	0.2319
273.625	0.2299
274.002	0.2275
274.379	0.2261
274.756	0.2267
275.132	0.2252
275.509	0.2246
275.886	0.2223
276.263	0.2221
276.64	0.2197
277.016	0.2168
277.393	0.2157
277.77	0.2135
278.146	0.213
278.523	0.211
278.899	0.2112
279.276	0.21
279.652	0.2102
280.029	0.209
280.405	0.208
280.782	0.2062
281.158	0.2051
281.534	0.204
281.91	0.2032
282.287	0.2019
282.663	0.2011
283.039	0.2011
283.415	0.1986
283.791	0.1971
284.167	0.1944
284.543	0.1956
284.919	0.1946
285.295	0.1934
285.671	0.1924
286.047	0.1924
286.423	0.19
286.799	0.1883
287.174	0.1859
287.55	0.1862
287.926	0.1861
288.301	0.1843
288.677	0.1829
289.053	0.1795
289.428	0.1785
289.804	0.1765
290.179	0.1773
290.555	0.1755
290.93	0.1743
291.305	0.1712
291.681	0.1707
292.056	0.171
292.431	0.17
292.806	0.171
293.182	0.1687
293.557	0.1685
293.932	0.1663
294.307	0.165
294.682	0.1634
295.057	0.1624
295.432	0.1614
295.807	0.1603
296.182	0.1588
296.557	0.1585
296.932	0.1583
297.306	0.1568
297.681	0.1556
298.056	0.1566
298.43	0.1563
298.805	0.1546
299.18	0.1519
299.554	0.1509
299.929	0.1501
300.303	0.1482
300.678	0.147
301.052	0.147
301.427	0.1457
301.801	0.1452
302.175	0.1432
302.55	0.1436
302.924	0.1424
303.298	0.1418
303.672	0.1399
304.046	0.1381
304.421	0.1369
304.795	0.1366
305.169	0.1355
305.543	0.1346
305.917	0.133
306.291	0.1331
306.664	0.134
307.038	0.132
307.412	0.1312
307.786	0.1293
308.16	0.1303
308.533	0.1303
308.907	0.1305
309.281	0.1291
309.654	0.1277
310.028	0.1255
310.401	0.1243
310.775	0.1236
311.148	0.1236
311.522	0.1239
311.895	0.1237
312.268	0.1214
312.642	0.1207
313.015	0.1196
313.388	0.118
313.761	0.1163
314.135	0.1131
314.508	0.1145
314.881	0.1155
315.254	0.1177
315.627	0.1163
316	0.1135
316.373	0.1117
316.746	0.1095
317.118	0.1095
317.491	0.1081
317.864	0.1077
318.237	0.106
318.61	0.1066
318.982	0.1071
319.355	0.1076
319.727	0.1059
320.1	0.106
320.473	0.1056
320.845	0.1059
321.218	0.1059
321.59	0.1041
321.962	0.1017
322.335	0.1007
322.707	0.0993
323.079	0.0997
323.452	0.098
323.824	0.0985
324.196	0.0969
324.568	0.0972
324.94	0.0968
325.312	0.0987
325.684	0.0986
326.056	0.0973
326.428	0.0937
326.8	0.0912
327.172	0.0897
327.544	0.0885
327.915	0.0886
328.287	0.0872
328.659	0.0886
329.031	0.0881
329.402	0.0887
329.774	0.0877
330.145	0.0853
330.517	0.0849
330.888	0.0836
331.26	0.0824
331.631	0.0824
332.003	0.0815
332.374	0.0818
332.745	0.0793
333.117	0.0789
333.488	0.0793
333.859	0.0788
334.23	0.0781
334.601	0.0771
334.972	0.0776
335.343	0.0779
335.714	0.0784
336.085	0.0793
336.456	0.0785
336.827	0.0753
337.198	0.0725
337.569	0.072
337.94	0.0727
338.31	0.0722
338.681	0.0711
339.052	0.0706
339.422	0.0709
339.793	0.0723
340.164	0.0722
340.534	0.0707
340.905	0.0693
341.275	0.0701
341.645	0.071
342.016	0.0699
342.386	0.0675
342.756	0.065
343.127	0.0646
343.497	0.0649
343.867	0.0661
344.237	0.0648
344.607	0.063
344.977	0.0618
345.347	0.0625
345.717	0.0623
346.087	0.0619
346.457	0.0602
346.827	0.0587
347.197	0.0579
347.567	0.0555
347.936	0.0577
348.306	0.0575
348.676	0.0606
349.046	0.0604
349.415	0.061
349.785	0.0592
350.154	0.0589
350.524	0.0596
350.893	0.0598
351.263	0.0578
351.632	0.0539
352.001	0.0539
352.371	0.0551
352.74	0.0562
353.109	0.0539
353.478	0.0531
353.847	0.0536
354.217	0.0539
354.586	0.053
354.955	0.0528
355.324	0.0539
355.693	0.0519
356.062	0.0504
356.43	0.0486
356.799	0.0504
357.168	0.0508
357.537	0.0519
357.906	0.0515
358.274	0.0501
358.643	0.0481
359.011	0.0481
359.38	0.0482
359.749	0.047
360.117	0.0451
360.486	0.043
360.854	0.0451
361.222	0.0436
361.591	0.0452
361.959	0.0419
362.327	0.043
362.695	0.0418
363.064	0.0434
363.432	0.0409
363.8	0.0411
364.168	0.0407
364.536	0.0436
364.904	0.0426
365.272	0.0414
365.64	0.0389
366.008	0.0385
366.376	0.0395
366.743	0.0392
367.111	0.0404
367.479	0.0403
367.847	0.0421
368.214	0.0391
368.582	0.0381
368.949	0.037
369.317	0.0384
369.684	0.0393
370.052	0.0394
370.419	0.0396
370.787	0.0377
371.154	0.037
371.521	0.0374
371.889	0.0361
372.256	0.0352
372.623	0.0323
372.99	0.0305
373.357	0.0303
373.724	0.0323
374.091	0.0333
374.458	0.0323
374.825	0.0292
375.192	0.0313
375.559	0.0314
375.926	0.0321
376.293	0.0311
376.659	0.0315
377.026	0.0323
377.393	0.0331
377.759	0.0324
378.126	0.0328
378.492	0.0321
378.859	0.0317
379.225	0.0299
379.592	0.0283
379.958	0.0301
380.325	0.0328
380.691	0.0342
381.057	0.0319
381.423	0.0293
381.79	0.0306
382.156	0.0295
382.522	0.0283
382.888	0.0243
383.254	0.0261
383.62	0.0264
383.986	0.0278
384.352	0.0282
384.718	0.0288
385.084	0.0314
385.449	0.0292
385.815	0.0267
386.181	0.024
386.547	0.0233
386.912	0.0227
387.278	0.0203
387.643	0.0221
388.009	0.0249
388.374	0.0249
388.74	0.0245
389.105	0.0246
389.471	0.0261
389.836	0.0248
390.201	0.0237
390.566	0.0244
390.932	0.0266
391.297	0.0272
391.662	0.0262
392.027	0.0229
392.392	0.0207
392.757	0.0197
393.122	0.0212
393.487	0.0217
393.852	0.0221
394.217	0.0228
394.582	0.0254
394.946	0.0265
395.311	0.0266
395.676	0.0265
396.04	0.0221
396.405	0.0198
396.77	0.0175
397.134	0.0207
397.499	0.021
397.863	0.02
398.227	0.0174
398.592	0.0186
398.956	0.0193
399.32	0.0227
399.685	0.0211
400.049	0.0225
400.413	0.0244
400.777	0.0245
401.141	0.0281
401.505	0.0263
401.869	0.0247
402.233	0.017
402.597	0.0146
402.961	0.015
403.325	0.0173
403.689	0.0191
404.053	0.0184
404.416	0.018
404.78	0.0168
405.144	0.0176
405.507	0.0178
405.871	0.016
406.234	0.0173
406.598	0.0155
406.961	0.017
407.325	0.0156
407.688	0.0156
408.051	0.0148
408.415	0.0157
408.778	0.0158
409.141	0.0157
409.504	0.0158
409.867	0.0153
410.23	0.0142
410.593	0.0124
410.956	0.0148
411.319	0.0173
411.682	0.0171
412.045	0.0148
412.408	0.013
412.771	0.0138
413.134	0.0151
413.496	0.0158
413.859	0.0163
414.222	0.0146
414.584	0.0126
414.947	0.0113
415.309	0.0116
415.672	0.0146
416.034	0.0155
416.396	0.0167
416.759	0.0153
417.121	0.0147
417.483	0.0129
417.846	0.0134
418.208	0.0134
418.57	0.0152
418.932	0.0147
419.294	0.0159
419.656	0.0147
420.018	0.0152
420.38	0.0133
420.742	0.0118
421.104	0.0109
421.466	0.0104
421.827	0.0111
422.189	0.0091
422.551	0.0089
422.912	0.0103
423.274	0.0118
423.636	0.0119
423.997	0.0137
424.359	0.0149
424.72	0.016
425.081	0.0127
425.443	0.0087
425.804	0.0071
426.165	0.0071
426.527	0.0082
426.888	0.0094
427.249	0.0112
427.61	0.0144
427.971	0.0122
428.332	0.0106
428.693	0.0069
429.054	0.0086
429.415	0.0102
429.776	0.0105
430.137	0.0101
430.498	0.0081
430.858	0.011
431.219	0.0124
431.58	0.0124
431.94	0.0122
432.301	0.013
432.661	0.0116
433.022	0.0107
433.382	0.0097
433.743	0.0078
434.103	0.0066
434.463	0.0026
434.824	0.0042
435.184	0.0056
435.544	0.0074
435.904	0.0075
436.264	0.006
436.624	0.0078
436.985	0.0115
437.345	0.0116
437.704	0.0101
438.064	0.0084
438.424	0.0048
438.784	0.0057
439.144	0.0109
439.504	0.0105
439.863	0.0059
440.223	-0.0006
440.583	0.002
440.942	0.0076
441.302	0.0076
441.661	0.0083
442.021	0.0046
442.38	0.0044
442.739	0.0051
443.099	0.007
443.458	0.0082
443.817	0.0107
444.176	0.0119
444.536	0.0088
444.895	0.0063
445.254	0.0045
445.613	0.0081
445.972	0.0081
446.331	0.0093
446.69	0.0052
447.049	0.0045
447.407	0.0036
447.766	0.0074
448.125	0.0071
448.484	0.0071
448.842	0.0084
449.201	0.0096
449.559	0.0084
449.918	0.0052
450.276	0.006
450.635	0.0085
450.993	0.0071
451.352	0.0063
451.71	0.0022
452.068	0.003
452.426	0.0018
452.785	0.001
453.143	0.0023
453.501	0.0038
453.859	0.0061
454.217	0.0053
454.575	0.0051
454.933	0.0055
455.291	0.0082
455.649	0.0057
456.006	0.0041
456.364	0.0051
456.722	0.003
457.079	0.0046
457.437	0.0041
457.795	0.0095
458.152	0.0092
458.51	0.0063
458.867	0.0034
459.225	0.0049
459.582	0.0062
459.939	0.0058
460.297	0.0052
460.654	0.0035
461.011	0.0022
461.368	0.0029
461.725	0.0036
462.082	0.0057
462.44	0.0064
462.797	0.0036
463.153	0.006
463.51	0.0045
463.867	0.0093
464.224	0.0044
464.581	0.0017
464.938	0.0012
465.294	0.0053
465.651	0.0075
466.008	0.0062
466.364	0.0033
466.721	0.0038
467.077	0.004
467.434	0.0059
467.79	0.006
468.146	0.0069
468.503	0.0114
468.859	0.0073
469.215	0.0021
469.571	-0.0046
469.927	-0.0018
470.284	-0.0006
470.64	0.005
470.996	0.0073
471.352	0.0119
471.707	0.0076
472.063	0.0039
472.419	0.0038
472.775	0.0007
473.131	0.0043
473.486	0.0034
473.842	0.0078
474.198	0.0073
474.553	0.0074
474.909	0.0088
475.264	0.0082
475.62	0.0072
475.975	0.0055
476.331	0.0048
476.686	0.0061
477.041	0.0034
477.396	0.0064
477.752	0.0065
478.107	0.0092
478.462	0.0042
478.817	0.002
479.172	0.0026
479.527	0.0048
479.882	0.0043
480.237	0.0016
480.591	0.0025
480.946	0.0023
481.301	0.003
481.656	-0.0025
482.01	-0.0028
482.365	-0.0047
482.72	0.0009
483.074	0.0031
483.429	0.0026
483.783	0.0007
484.137	0.0027
484.492	0.004
484.846	0.0053
485.2	-0.0008
485.555	-0.0021
485.909	-0.0014
486.263	0.0024
486.617	0.0025
486.971	0.003
487.325	0.0043
487.679	0.0077
488.033	0.0018
488.387	0.0077
488.741	0.0079
489.094	0.0033
489.448	-0.0045
489.802	-0.0012
490.156	0.0051
490.509	0.001
490.863	-0.0068
491.216	-0.0045
491.57	-0.0006
491.923	0.0029
492.277	0.0008
492.63	-0.0002
492.983	-0.0021
493.337	-0.0024
493.69	0.0017
494.043	0.0019
494.396	0.0017
494.749	-0.0011
495.102	-0.0019
495.455	-0.0006
495.808	-0.0035
496.161	-0.0007
496.514	-0.0011
496.867	0.0036
497.22	0.0031
497.572	0.0021
497.925	0.0013
498.278	-0.0001
498.63	0.0066
498.983	0.0068
499.335	0.0068
499.688	-0.0039
500.04	-0.0066
500.393	-0.0086
500.745	-0.0037
501.097	-0.0015
501.449	-0.0013
501.802	-0.002
502.154	-0.0036
502.506	-0.0035
502.858	-0.003
503.21	-0.0024
503.562	0.0018
503.914	0.0075
504.266	0.0105
504.618	0.0058
504.969	0.0022
505.321	-0.0046
505.673	-0.0029
506.025	-0.0021
506.376	0.0011
506.728	-0.0023
507.079	-0.0026
507.431	-0.0034
507.782	-0.001
508.134	0.0008
508.485	0.0005
508.836	-0.0006
509.188	-0.0012
509.539	0.0007
509.89	-0.0003
510.241	-0.0049
510.592	-0.0013
510.943	-0.0023
511.294	-0.0012
511.645	-0.0074
511.996	-0.0046
512.347	-0.0028
512.698	0.0003
513.049	-0.0002
513.399	-0.0024
513.75	-0.0052
514.101	0.0002
514.451	0.0027
514.802	0.0049
515.152	0.0002
515.503	0.0018
515.853	-0.0001
516.203	-0.0023
516.554	-0.0051
516.904	-0.0014
517.254	0.0015
517.604	-0.001
517.955	-0.0063
518.305	-0.0045
518.655	-0.0003
519.005	0.004
519.355	0.004
519.705	0.0007
520.055	-0.002
520.404	-0.0049
520.754	-0.0012
521.104	0.0015
521.454	0.0051
521.803	0.0043
522.153	0.0017
522.502	-0.0029
522.852	-0.0066
523.201	-0.0067
523.551	-0.0051
523.9	-0.0023
524.249	-0.0001
524.599	-0.0022
524.948	-0.0025
525.297	-0.0013
525.646	-0.0008
525.995	-0.0021
526.344	-0.006
526.694	-0.0015
527.042	-0.002
527.391	-0.0022
527.74	-0.0044
528.089	-0.0016
528.438	0.0038
528.787	0.0037
529.135	0.0031
529.484	0.003
529.833	0.0032
530.181	0.0002
530.53	-0.0022
530.878	-0.0045
531.227	0.0005
531.575	0.0029
531.923	-0.0011
532.271	-0.0039
532.62	-0.0052
532.968	-0.0017
533.316	-0.002
533.664	-0.0037
534.012	-0.0019
534.36	0.0005
534.708	-0.0029
535.056	-0.0039
535.404	-0.0071
535.752	-0.0041
536.1	-0.006
536.447	-0.0065
536.795	-0.004
537.143	-0.0004
537.49	-0.0002
537.838	-0.0043
538.185	-0.0056
538.533	-0.0066
538.88	-0.0029
539.228	-0.0048
539.575	-0.0023
539.922	-0.0039
540.269	0.0017
540.617	0.0018
540.964	0.0002
541.311	-0.002
541.658	-0.0006
542.005	0.0013
542.352	-0.0007
542.699	-0.0025
543.045	-0.0056
543.392	-0.0042
543.739	-0.0043
544.086	-0.0031
544.432	-0.0058
544.779	-0.0028
545.126	-0.0043
545.472	-0.0043
545.819	-0.007
546.165	-0.0058
546.512	-0.0021
546.858	0.0029
547.204	0.0054
547.55	0.0032
547.897	-0.0005
548.243	-0.0058
548.589	-0.0028
548.935	-0.0066
549.281	-0.0039
549.627	-0.0075
549.973	-0.0031
550.319	-0.0032
550.665	-0.0007
551.01	-0.0056
551.356	-0.0101
551.702	-0.0142
552.048	-0.0169
552.393	-0.0088
552.739	-0.005
553.084	0.0005
553.43	-0.003
553.775	-0.0047
554.12	-0.0022
554.466	0.0029
554.811	0.0049
555.156	0.0035
555.502	0.0016
555.847	-0.0001
556.192	-0.0008
556.537	-0.0031
556.882	-0.0036
557.227	-0.009
557.572	-0.0053
557.917	0.0027
558.261	0.0019
558.606	-0.0061
558.951	-0.0139
559.295	-0.0162
559.64	-0.0077
559.985	-0.0061
560.329	0.0004
560.674	-0.0045
561.018	-0.0074
561.363	-0.0076
561.707	-0.0068
562.051	-0.005
562.395	0.0015
562.74	0.0014
563.084	0.0029
563.428	0.0012
563.772	0.0023
564.116	0.0006
564.46	-0.0022
564.804	0.0026
565.148	-0.0037
565.492	0.0005
565.835	0.0008
566.179	0.0075
566.523	-0.0016
566.866	-0.0083
567.21	-0.0093
567.554	-0.0032
567.897	-0.0011
568.24	-0.0055
568.584	-0.0089
568.927	-0.0053
569.271	-0.003
569.614	-0.0016
569.957	-0.0034
570.3	0.0019
570.643	0.0014
570.986	-0.0021
571.329	-0.0001
571.672	0.0041
572.015	0.0017
572.358	-0.0025
572.701	0.002
573.044	-0.0006
573.387	-0.0004
573.729	0.0001
574.072	0.0073
574.414	0.009
574.757	0.0088
575.099	-0.0085
575.442	-0.0173
575.784	-0.0056
576.127	0.0072
576.469	0.0069
576.811	-0.007
577.153	-0.0068
577.496	-0.0047
577.838	-0.0007
578.18	-0.0132
578.522	-0.014
578.864	-0.0174
579.206	0.0057
579.548	0.0069
579.889	-0.0081
580.231	0.0047
580.573	0.0165
580.915	0.015
581.256	-0.0107
581.598	-0.0284
581.939	-0.0315
582.281	-0.0024
582.622	-0.006
582.964	-0.0015
583.305	-0.0157
583.646	-0.005
583.988	0.0351
584.329	0.0193
584.67	0.0042
585.011	-0.0264
585.352	-0.0354
585.693	-0.0211
586.034	-0.0282
586.375	-0.0207
586.716	-0.0153
587.057	-0.0053
587.398	0.0091
587.738	0.0187
588.079	0.0069
588.42	0.0009
588.76	-0.0236
589.101	-0.0181
589.441	-0.0214
589.782	-0.0048
590.122	0.004
590.463	0.0033
590.803	-0.0104
591.143	-0.011
591.483	-0.0181
591.823	-0.0196
592.164	-0.0233
592.504	-0.0067
592.844	0.0003
593.184	-0.005
593.523	-0.0167
593.863	-0.0136
594.203	-0.0042
594.543	0.0064
594.883	-0.0036
595.222	0.0027
595.562	0.0192
595.901	0.0167
596.241	0.0028
596.58	-0.015
596.92	-0.0209
597.259	-0.0257
597.599	-0.0167
597.938	0.0017
598.277	0.0041
598.616	-0.0148
598.955	-0.0212
599.295	-0.0173
599.634	0.0015
599.973	0.0069
600.312	0.0122
600.65	-0.0018
600.989	-0.0054
601.328	0.0011
601.667	0.0233
602.005	0.0053
602.344	-0.0054
602.683	-0.01
603.021	-0.0002
603.36	-0.0086
603.698	-0.0192
604.037	-0.0197
604.375	-0.0147
604.713	-0.0174
605.052	-0.0138
605.39	-0.0123
605.728	-0.0103
606.066	0.0106
606.404	0.0141
606.742	0.0059
607.08	-0.0072
607.418	-0.0184
607.756	-0.0079
608.094	-0.0027
608.431	0.0019
608.769	0.0085
609.107	-0.01
609.444	-0.0008
609.782	-0.0107
610.12	0.0053
610.457	-0.0031
610.794	-0.0182
611.132	-0.0209
611.469	-0.0215
611.806	-0.0159
612.144	-0.0226
612.481	-0.0136
612.818	0.0014
613.155	-0.0067
613.492	-0.012
613.829	-0.014
614.166	0.0004
614.503	-0.0024
614.84	-0.0078
615.176	-0.0097
615.513	-0.0058
615.85	-0.0042
616.187	-0.001
616.523	-0.0075
616.86	-0.0094
617.196	-0.0011
617.533	0.0184
617.869	0.011
618.205	-0.0027
618.542	-0.0229
618.878	-0.0305
619.214	-0.0199
619.55	-0.0134
619.886	-0.0066
620.222	-0.0202
620.558	-0.0129
620.894	-0.0006
621.23	-0.0001
621.566	-0.0081
621.902	-0.0104
622.238	-0.0136
622.573	0.0061
622.909	-0.0033
623.244	0.0005
623.58	-0.0228
623.916	-0.0237
624.251	-0.0071
624.586	0.0166
624.922	0.0173
625.257	-0.0041
625.592	-0.0157
625.927	-0.0121
626.263	-0.0089
626.598	-0.0096
626.933	-0.0062
627.268	0.0002
627.603	-0.0076
627.938	-0.0186
628.272	-0.0137
628.607	-0.013
628.942	-0.0061
629.277	-0.0121
629.611	-0.0014
629.946	0.0091
630.281	0.0008
630.615	-0.0035
630.949	-0.0187
631.284	-0.0159
631.618	-0.0078
631.953	0.0002
632.287	0.003
632.621	-0.0091
632.955	-0.0159
633.289	-0.016
633.623	-0.0114
633.957	-0.0059
634.291	-0.0042
634.625	0.0019
634.959	-0.0059
635.293	-0.0019
635.627	-0.0019
635.96	0.0038
636.294	-0.0047
636.627	-0.0082
636.961	-0.0004
637.294	-0.0005
637.628	-0.008
637.961	-0.0136
638.295	-0.0077
638.628	0.0035
638.961	0.002
639.294	0.0002
639.628	-0.01
639.961	-0.0138
640.294	-0.0126
640.627	-0.0042
640.96	0.0031
641.293	0.0042
641.625	-0.0001
641.958	-0.0057
642.291	-0.0123
642.624	-0.0111
642.956	-0.0113
643.289	-0.0069
643.621	-0.0047
643.954	-0.005
644.286	-0.0059
644.619	-0.0093
644.951	-0.009
645.283	-0.0073
645.616	-0.0051
645.948	-0.0034
646.28	-0.0012
646.612	-0.0025
646.944	-0.0039
647.276	-0.01
647.608	-0.0068
647.94	-0.005
648.272	-0.0022
648.603	-0.0054
648.935	-0.0012
649.267	-0.0008
649.598	0.0013
649.93	-0.0025
650.261	-0
650.593	0.0023
650.924	0.0103
651.256	0.0089
651.587	0.0027
651.918	-0.0026
652.25	-0.0051
652.581	-0.0053
652.912	-0.0126
653.243	-0.0128
653.574	-0.0092
653.905	-0.0046
654.236	-0.0057
654.567	-0.0032
654.897	-0.0038
655.228	-0.0047
655.559	-0.0045
655.89	0.0023
656.22	-0.0017
656.551	-0.0081
656.881	-0.0142
657.212	-0.0104
657.542	-0.0074
657.872	-0.0023
658.203	0.0113
658.533	0.1329
658.863	0.0732
659.193	0.0107
659.523	-0.0516
659.853	-0.1156
660.183	-0.0681
660.513	-0.0307
660.843	-0.0136
661.173	-0.0024
661.503	-0.0034
661.833	-0.002
662.162	-0.0075
662.492	-0.0087
662.822	-0.0097
663.151	-0.0111
663.481	-0.0106
663.81	-0.0056
664.139	-0.0008
664.469	-0
664.798	-0.0025
665.127	-0.0049
665.456	-0.002
665.785	-0.0017
666.114	-0.0032
666.443	-0.0047
666.772	-0.0053
667.101	0.0002
667.43	0.0026
667.759	0.002
668.088	-0
668.416	-0.0104
668.745	-0.008
669.074	-0.0074
669.402	-0.0012
669.731	-0.0044
670.059	-0.0057
670.388	-0.006
670.716	-0.0049
671.044	-0.0051
671.372	-0.0068
671.701	-0.0042
672.029	0.0019
672.357	0.005
672.685	0.0034
673.013	-0.0022
673.341	-0.006
673.669	-0.0109
673.996	-0.008
674.324	0.0087
674.652	0.0077
674.98	0.001
675.307	-0.0115
675.635	-0.0145
675.962	-0.0094
676.29	-0.0116
676.617	-0.0048
676.945	-0.0038
677.272	-0.0034
677.599	-0.0001
677.926	-0.0032
678.253	-0.0018
678.581	-0.0111
678.908	-0.0076
679.235	0.0023
679.561	-0.0009
679.888	-0.0109
680.215	-0.0152
680.542	0.0075
680.869	0.0073
681.195	-0.0022
681.522	-0.0139
681.849	-0.0093
682.175	0.0016
682.502	0.0002
682.828	-0.0022
683.154	-0.0108
683.481	-0.0102
683.807	-0.0122
684.133	0.0013
684.459	0.0007
684.785	0.0085
685.111	-0.0078
685.437	-0.0092
685.763	-0.0156
686.089	-0.006
686.415	-0.0016
686.741	-0.001
687.067	0.0034
687.392	0.0012
687.718	0.0041
688.043	0.0026
688.369	0.0028
688.694	-0.0019
689.02	-0.0078
689.345	-0.0119
689.67	-0.009
689.996	-0.0049
690.321	-0.0006
690.646	-0.0041
690.971	-0.0058
691.296	-0.0037
691.621	-0.0022
691.946	0.0026
692.271	0.0024
692.596	0.0016
692.921	-0.0054
693.245	-0.013
693.57	-0.004
693.895	0.0069
694.219	0.0101
694.544	-0.0023
694.868	-0.0134
695.193	-0.0143
695.517	-0.005
695.841	-0.0011
696.166	-0.0013
696.49	-0.0053
696.814	-0.0099
697.138	-0.007
697.462	-0.0013
697.786	0.006
698.11	0.0159
698.434	0.0063
698.758	-0.0056
699.081	-0.0215
699.405	-0.0129
699.729	0.0191
700.052	0.0166
700.376	0.0064
700.7	-0.0176
701.023	-0.022
701.346	-0.0161
701.67	-0.009
701.993	-0.0068
702.316	-0.008
702.639	-0.0051
702.963	-0.0086
703.286	-0.0093
703.609	-0.0101
703.932	-0.0068
704.255	-0.0088
704.578	-0.0089
704.9	-0.0005
705.223	0.0062
705.546	0.0062
705.868	-0.0022
706.191	-0.008
706.514	-0.014
706.836	-0.012
707.159	-0.0061
707.481	-0.0023
707.803	-0.0023
708.126	-0.0033
708.448	-0.0025
708.77	0.0064
709.092	0.0029
709.414	0.0089
709.736	0.009
710.058	0.0072
710.38	-0.0007
710.702	-0.0072
711.024	-0.0106
711.345	-0.0117
711.667	-0.0136
711.989	-0.0094
712.31	-0.01
712.632	-0.008
712.953	-0.0088
713.275	-0.006
713.596	-0.0039
713.917	-0.0093
714.239	-0.0128
714.56	-0.0165
714.881	-0.0092
715.202	-0.003
715.523	0.0078
715.844	-0.0002
716.165	0.0023
716.486	-0.0057
716.807	-0.0001
717.128	-0.0032
717.448	-0.0067
717.769	-0.0104
718.09	-0.0098
718.41	-0.0144
718.731	-0.0138
719.051	-0.0207
719.372	-0.0167
719.692	-0.0109
720.012	-0.0013
720.332	-0.0028
720.653	0.0017
720.973	0.0085
721.293	0.0028
721.613	-0.0072
721.933	-0.0183
722.253	-0.007
722.573	-0.0099
722.892	-0.0088
723.212	-0.0102
723.532	-0
723.851	-0.0029
724.171	-0.0033
724.491	-0.0025
724.81	0.0015
725.129	0.001
725.449	-0.0037
725.768	-0.0031
726.087	-0.003
726.407	-0.0025
726.726	-0.0073
727.045	-0.0114
727.364	-0.0082
727.683	-0.0057
728.002	0.0012
728.321	-0.0032
728.64	-0.0055
728.958	-0.0054
729.277	-0.0076
729.596	-0.0108
729.914	-0.0133
730.233	-0.0066
730.551	0.003
730.87	0.003
731.188	-0.0013
731.507	-0.0122
731.825	-0.0173
732.143	-0.0177
732.461	-0.0052
732.779	0.0003
733.097	0.0025
733.415	0.0066
733.733	0.0139
734.051	0.0005
734.369	-0.008
734.687	-0.0231
735.005	-0.0154
735.322	-0.0125
735.64	-0.0043
735.957	-0.0038
736.275	-0.01
736.592	-0.0085
736.91	-0.0102
737.227	-0.006
737.544	-0.0167
737.862	-0.0118
738.179	-0.0094
738.496	0.0037
738.813	-0.0042
739.13	-0.0171
739.447	-0.0214
739.764	-0.0084
740.081	-0.0023
740.398	-0.0076
740.714	-0.0127
741.031	-0.0104
741.348	-0.0026
741.664	0.0008
741.981	0.0114
742.297	0.0005
742.614	-0.0118
742.93	-0.0267
743.246	-0.0207
743.563	-0.0102
743.879	-0.005
744.195	-0.0075
744.511	-0.0105
744.827	-0.0087
745.143	0.0036
745.459	0.0082
745.775	0.0031
746.091	-0.0051
746.406	-0.0075
746.722	-0.0107
747.038	-0.0146
747.353	-0.0106
747.669	-0.0036
747.984	-0.0023
748.3	-0.0034
748.615	-0.0038
748.93	0.001
749.246	-0.0058
749.561	-0.0051
749.876	-0.0073
750.191	-0.0021
750.506	-0.004
750.821	-0.0065
751.136	-0.006
751.451	-0.0052
751.766	-0.0018
752.08	0.0007
752.395	-0.0008
752.71	-0.0034
753.024	-0.0035
753.339	-0.0059
753.653	-0.0067
753.968	-0.0025
754.282	0.005
754.596	0.0069
754.911	-0.0015
755.225	0.0009
755.539	-0.0051
755.853	-0.0091
756.167	-0.0112
756.481	-0.0071
756.795	-0.0094
757.109	-0.0129
757.423	-0.0116
757.736	-0.0065
758.05	-0.0037
758.364	-0.0002
758.677	-0.0048
758.991	-0.009
759.304	0.0001
759.618	0.0087
759.931	0.0078
760.244	0.0074
760.558	0.001
760.871	-0.0018
761.184	-0.0187
761.497	-0.0242
761.81	-0.0184
762.123	-0.008
762.436	0.0001
762.749	-0.0058
763.062	-0.006
763.374	-0.0008
763.687	-0.0045
764	-0.009
764.312	-0.0214
764.625	-0.0204
764.937	-0.0206
765.25	-0.015
765.562	-0.0026
765.874	-0.0026
766.186	-0.0008
766.499	-0.0114
766.811	-0.005
767.123	0.0065
767.435	0.009
767.747	0.0054
768.059	-0.0121
768.37	-0.0132
768.682	-0.0209
768.994	-0.021
769.306	-0.0217
769.617	-0.0159
769.929	-0.011
770.24	-0.0099
770.552	-0.0044
770.863	0.0007
771.174	0.001
771.486	-0.0064
771.797	-0.0144
772.108	-0.0197
772.419	-0.02
772.73	-0.0127
773.041	-0.0055
773.352	-0.0001
773.663	-0.0045
773.974	-0.0036
774.285	-0.0151
774.595	-0.0147
774.906	-0.0161
775.217	-0.0061
775.527	-0
775.838	-0.0051
776.148	-0.0035
776.458	-0.0084
776.769	-0.0049
777.079	-0.0088
777.389	-0.0052
777.699	-0.001
778.009	-0.0019
778.319	-0.0042
778.629	-0.0144
778.939	-0.0139
779.249	-0.0121
779.559	-0.0037
779.869	-0.001
780.178	-0.0035
780.488	-0.0084
780.798	-0.0099
781.107	-0.0008
781.417	0.007
781.726	0.0061
782.035	0.0002
782.345	-0.0075
782.654	-0.0079
782.963	-0.0107
783.272	-0.0063
783.581	0.003
783.89	0.0117
784.199	0.0017
784.508	-0.0089
784.817	-0.0242
785.126	-0.0157
785.434	-0.0101
785.743	-0.0081
786.052	-0.0082
786.36	-0.007
786.669	-0.0042
786.977	-0.0075
787.285	-0.014
787.594	-0.0115
787.902	-0.0072
788.21	-0.0056
788.518	-0.0006
788.826	-0.0019
789.135	-0.0039
789.442	-0.0149
789.75	-0.0184
790.058	-0.0131
790.366	-0.0034
790.674	-0.0013
790.981	0.002
791.289	0.0031
791.597	-0.0009
791.904	-0.0085
792.212	-0.0118
792.519	-0.0124
792.826	-0.0038
793.134	-0.0029
793.441	0.0035
793.748	0.001
794.055	0.0028
794.362	0.0021
794.669	-0.0076
794.976	-0.0149
795.283	-0.0214
795.59	-0.0144
795.897	-0.013
796.203	-0.0103
796.51	0.0086
796.817	0.0216
797.123	0.0096
797.43	-0.0093
797.736	-0.019
798.042	-0.0137
798.349	-0.0138
798.655	-0.0224
798.961	-0.0153
799.267	-0.0089
799.573	-0.0014
799.879	0.0016
800.185	0.0031
800.491	0.0019
800.797	-0.0098
801.103	-0.0143
801.408	-0.0126
801.714	-0.0058
802.02	-0.0085
802.325	-0.0068
802.631	-0.0098
802.936	-0.0002
803.242	-0.0035
803.547	-0.0037
803.852	-0.0062
804.157	-0.0061
804.462	-0.0039
804.768	-0.0109
805.073	-0.0069
805.378	-0.0064
805.682	-0.0037
805.987	-0.0044
806.292	-0.0064
806.597	-0.0064
806.902	-0.0045
807.206	-0.0079
807.511	-0.0093
807.815	-0.0146
808.12	-0.0044
808.424	0.0028
808.728	0.0117
809.033	0.0135
809.337	0.0025
809.641	-0.0158
809.945	-0.0175
810.249	-0.0106
810.553	-0.0063
810.857	-0.0055
811.161	-0.0126
811.465	-0.0065
811.768	-0.0225
812.072	-0.02
812.376	-0.022
812.679	-0.0088
812.983	-0.0032
813.286	-0.0024
813.59	-0.009
813.893	-0.0094
814.196	-0.0109
814.499	-0.0021
814.803	-0.0023
815.106	0.0021
815.409	0.0024
815.712	0.0004
816.015	0.0079
816.318	0.0073
816.62	0.0048
816.923	-0.015
817.226	-0.0229
817.528	-0.0156
817.831	-0.0036
818.133	-0.0094
818.436	-0.0153
818.738	-0.0174
819.041	-0.0059
819.343	-0.0084
819.645	-0.0062
819.947	-0.005
820.249	-0.0058
820.551	-0.007
820.853	-0.0159
821.155	-0.017
821.457	-0.0163
821.759	-0.0132
822.061	-0.0121
822.362	-0.0079
822.664	-0.0049
822.966	0.0131
823.267	0.008
823.569	0.0031
823.87	-0.0251
824.171	-0.0312
824.473	-0.0281
824.774	-0.0184
825.075	-0.0128
825.376	-0.0148
825.677	-0.0085
825.978	-0.0041
826.279	-0.0095
826.58	-0.0135
826.881	-0.0173
827.181	-0.0171
827.482	-0.0166
827.783	-0.0159
828.083	-0.0117
828.384	-0.0087
828.684	-0.014
828.985	-0.0084
829.285	-0.0074
829.585	0.0016
829.885	0.0009
830.185	0.0056
830.486	0.0025
830.786	-0.0105
831.086	-0.0196
831.385	-0.023
831.685	-0.011
831.985	-0.0073
832.285	-0.0087
832.585	-0.011
832.884	-0.0217
833.184	-0.0261
833.483	-0.0268
833.783	-0.0213
834.082	-0.0031
834.381	0.0009
834.681	0.0045
834.98	-0.0106
835.279	-0.0168
835.578	-0.0126
835.877	-0.0192
836.176	-0.0175
836.475	-0.0225
836.774	-0.0139
837.072	-0.0039
837.371	0.0013
837.67	0.0012
837.968	-0.0088
838.267	-0.0074
838.565	-0.0143
838.864	-0.0145
839.162	-0.0267
839.46	-0.0225
839.759	-0.0238
840.057	-0.0217
840.355	-0.0143
840.653	-0.0213
840.951	-0.0181
841.249	-0.0381
841.547	-0.0356
841.845	-0.0374
842.142	-0.022
842.44	-0.0111
842.738	-0.012
843.035	-0.0088
843.333	-0.0151
843.63	-0.0181
843.928	-0.0082
844.225	-0.0063
844.522	-0.0019
844.82	-0.009
845.117	-0.0089
845.414	0.0021
845.711	-0.0125
846.008	-0.0154
846.305	-0.0256
846.602	-0.0103
846.898	-0.0167
847.195	-0.0205
847.492	-0.0194
847.788	-0.0029
848.085	0.0006
848.382	-0.0021
848.678	-0.007
848.974	-0.0095
849.271	-0.0198
849.567	-0.0249
849.863	-0.024
850.159	-0.0136
850.455	-0.0097
850.751	-0.0104
851.047	-0.0241
851.343	-0.0254
851.639	-0.0256
851.935	-0.0013
852.23	-0.0015
852.526	-0.0026
852.822	-0.0185
853.117	-0.0177
853.413	-0.0096
853.708	-0.0027
854.003	0.0047
854.299	-0.0174
854.594	-0.0181
854.889	-0.025
855.184	-0.0071
855.479	-0.0059
855.774	-0.0021
856.069	0.0008
856.364	0.0058
856.659	0.0068
856.954	0.0106
857.248	-0.0102
857.543	-0.0291
857.837	-0.0451
858.132	-0.0338
858.426	-0.0283
858.721	-0.0252
859.015	-0.0262
859.309	-0.0138
859.604	-0.0149
859.898	-0.0212
860.192	-0.0252
860.486	-0.0193
860.78	-0.0237
861.074	-0.0295
861.367	-0.0517
861.661	-0.0201
861.955	-0.0152
862.248	0.0087
862.542	-0.0365
862.836	-0.0472
863.129	-0.0371
863.422	-0.0305
863.716	-0.0276
864.009	-0.0503
864.302	-0.0272
864.595	-0.0265
864.889	-0.0097
865.182	-0.0371
865.475	-0.0176
865.767	-0.0361
866.06	-0.0032
866.353	-0.0419
866.646	-0.0271
866.938	-0.0398
867.231	-0.0214
867.524	0.0044
867.816	0.014
868.109	0.0144
868.401	-0.012
868.693	-0.0101
868.985	-0.0052
869.278	0.0012
869.57	-0.0087
869.862	-0.0176
870.154	-0.0537
870.446	-0.0221
870.738	-0.0319
871.029	0.0049
871.321	-0.0177
871.613	0.0066
871.904	-0.0384
872.196	-0.042
872.487	-0.0937
872.779	-0.061
873.07	-0.0493
873.362	-0.0103
873.653	-0.0086
873.944	-0.0243
874.235	-0.0332
874.526	-0.0327
874.817	-0.0245
875.108	-0.0386
875.399	-0.0219
875.69	-0.0296
875.981	-0.0074
876.271	-0.0218
876.562	-0.0475
876.853	-0.0489
877.143	-0.042
877.434	-0.0165
877.724	-0.0017
878.014	-0.023
878.305	-0.0201
878.595	-0.0378
878.885	-0.0449
879.175	-0.0323
879.465	-0.0172
879.755	0.0009
880.045	-0.0166
880.335	-0.0324
880.624	-0.0396
880.914	-0.0396
