Data from Absorbance_14-39-41-452.txt Node
Date: Mon Jun 11 14:39:41 MDT 2018
User: Tank Lab
Spectrometer: FLMS01220
Trigger mode: 0
Integration Time (sec): 1.500000E-1
Scans to average: 10
Electric dark correction enabled: true
Nonlinearity correction enabled: false
Boxcar width: 1
XAxis mode: Wavelengths
Number of Pixels in Spectrum: 2048
>>>>>Begin Spectral Data<<<<<
179.47	-0.4226
179.856	-0.4226
180.241	-0.5634
180.626	-0.3869
181.011	-0.0785
181.396	0.1918
181.781	-0.0246
182.166	-0.0521
182.551	2.3722
182.936	0.1578
183.321	0.3401
183.706	0.1492
184.091	-1.3286
184.476	-0
184.86	-0.1132
185.245	-1.4178
185.63	0.9288
186.015	-0.9738
186.399	0.0031
186.784	0.2718
187.169	-0
187.553	-0
187.938	-0.4921
188.322	-0.0646
188.707	-0.0455
189.091	-0.0163
189.475	-0.0012
189.86	0.0267
190.244	0.0229
190.629	0.0284
191.013	0.0198
191.397	0.0281
191.781	0.0215
192.165	0.0207
192.55	0.0079
192.934	0.0068
193.318	0.0053
193.702	0.0089
194.086	0.0101
194.47	0.0139
194.854	0.0135
195.238	0.0094
195.622	0.0071
196.006	0.0037
196.389	0.0038
196.773	0.0009
197.157	0.0041
197.541	0.0026
197.924	0.001
198.308	0.0006
198.692	-0.0005
199.075	0.0036
199.459	0.0006
199.843	0.0008
200.226	-0.0039
200.61	-0.0029
200.993	-0.004
201.376	-0.0032
201.76	-0.0017
202.143	-0.0003
202.527	0.001
202.91	-0.0003
203.293	0.0005
203.676	0.0003
204.059	0.0042
204.443	0.0055
204.826	0.0044
205.209	-0.0004
205.592	-0.0026
205.975	-0.0004
206.358	-0.0002
206.741	0.0003
207.124	-0.0008
207.507	0.0012
207.89	0.0003
208.273	-0.0004
208.655	-0.0015
209.038	0.0012
209.421	0.0023
209.804	0.0022
210.186	0.001
210.569	0.0001
210.951	0.0012
211.334	0.0025
211.717	0.0015
212.099	0.0027
212.482	0.0004
212.864	0.0013
213.246	0.0012
213.629	-0.0004
214.011	-0.0004
214.393	-0.0018
214.776	0.0006
215.158	0.0002
215.54	-0.0005
215.922	-0.0018
216.305	-0.0015
216.687	-0.0013
217.069	-0.0012
217.451	-0.0004
217.833	-0.0014
218.215	0.0003
218.597	0.0002
218.979	0.0028
219.361	0.0034
219.742	0.0026
220.124	0.0002
220.506	-0.0015
220.888	-0.0007
221.27	-0.0009
221.651	-0.0007
222.033	-0.0017
222.415	-0.0004
222.796	-0.0009
223.178	-0.0015
223.559	-0.0019
223.941	-0.0002
224.322	0.0011
224.704	0.0026
225.085	0.0006
225.466	0.0001
225.848	-0.0014
226.229	0.0002
226.61	0.001
226.992	0.0011
227.373	0.0005
227.754	-0.0003
228.135	-0.0011
228.516	-0.0002
228.897	0.0005
229.278	0.0022
229.659	0.003
230.04	0.0031
230.421	0.0013
230.802	-0.0004
231.183	-0.0011
231.564	-0.0009
231.944	-0.0015
232.325	0.0004
232.706	0.0012
233.087	0.0017
233.467	0.0001
233.848	-0.0002
234.229	0.0002
234.609	0.0002
234.99	0.0004
235.37	-0.0002
235.751	-0.0001
236.131	0.0004
236.511	0.0013
236.892	0.0002
237.272	0
237.652	-0.0005
238.033	-0.0005
238.413	-0.0004
238.793	-0.0003
239.173	0.0006
239.553	0.001
239.933	0.0014
240.313	0.001
240.694	0.0008
241.074	-0.0001
241.453	0.0004
241.833	-0.0004
242.213	0.0001
242.593	-0
242.973	0.0004
243.353	0.002
243.732	0.0019
244.112	0.0019
244.492	0.0003
244.872	-0.0002
245.251	0.0004
245.631	0.0016
246.01	0.0025
246.39	0.0019
246.769	0.0012
247.149	0.0006
247.528	0.0004
247.908	-0.001
248.287	-0.0015
248.666	-0.0024
249.045	-0.001
249.425	0.0005
249.804	0.001
250.183	0.0003
250.562	-0.0001
250.941	-0
251.32	-0.0002
251.699	0.0001
252.078	0.001
252.457	0.0004
252.836	0.0005
253.215	0.0002
253.594	0.0016
253.973	0.0005
254.352	0.0004
254.731	0.0009
255.109	0.0009
255.488	0.0006
255.867	-0.0004
256.245	-0.0002
256.624	-0.0001
257.002	-0.0002
257.381	-0.0003
257.759	-0.0007
258.138	-0.0009
258.516	-0.0005
258.895	0.0011
259.273	0.0023
259.651	0.0031
260.03	0.0021
260.408	0.0013
260.786	0.0005
261.164	0.0005
261.542	0.0011
261.921	0.0013
262.299	0
262.677	-0.0009
263.055	-0.0006
263.433	0.0003
263.811	-0.0002
264.188	-0.0006
264.566	-0.0003
264.944	0.0008
265.322	0.0003
265.7	-0
266.077	0
266.455	0.001
266.833	0.0005
267.21	-0.0001
267.588	-0.0011
267.966	-0.0013
268.343	-0.001
268.721	-0.0005
269.098	-0.0004
269.475	-0.0005
269.853	0.0002
270.23	0.0006
270.607	0.0001
270.985	0.0004
271.362	0.0009
271.739	0.0023
272.116	0.0016
272.494	0.0013
272.871	0.0003
273.248	-0.0005
273.625	-0.0011
274.002	0.0001
274.379	-0.0004
274.756	-0.0002
275.132	-0.0024
275.509	-0.0013
275.886	-0.0014
276.263	-0.0006
276.64	-0.0007
277.016	-0.0011
277.393	-0.0008
277.77	-0.0004
278.146	-0.0004
278.523	0.0009
278.899	0.0006
279.276	0.001
279.652	0.0007
280.029	0.0009
280.405	0.0012
280.782	-0.0002
281.158	-0.0007
281.534	-0.0011
281.91	0.0007
282.287	0.0012
282.663	0.001
283.039	-0.0004
283.415	0
283.791	0
284.167	-0.0005
284.543	-0.0021
284.919	-0.0013
285.295	-0.0006
285.671	0.0002
286.047	-0.0003
286.423	-0.0006
286.799	0.0003
287.174	0
287.55	0.0003
287.926	0.0001
288.301	0.0002
288.677	0.0007
289.053	0.0002
289.428	0.0009
289.804	-0.0003
290.179	-0.001
290.555	-0.0017
290.93	-0.0002
291.305	-0.0005
291.681	-0.0002
292.056	-0.0007
292.431	-0.0006
292.806	-0.0001
293.182	-0.0007
293.557	-0.0004
293.932	-0.001
294.307	-0.0007
294.682	-0.0008
295.057	-0.0016
295.432	-0.0013
295.807	-0.0005
296.182	0.0004
296.557	0.0008
296.932	-0.0008
297.306	-0.0009
297.681	-0.002
298.056	-0.0008
298.43	-0.0008
298.805	0.0004
299.18	0.0001
299.554	-0.001
299.929	-0.0017
300.303	-0.0014
300.678	-0.0007
301.052	-0.0015
301.427	-0.0016
301.801	-0.0012
302.175	0.0009
302.55	0.0012
302.924	0.0011
303.298	0.001
303.672	0.0001
304.046	0.0002
304.421	0.0005
304.795	0.0014
305.169	0.0005
305.543	-0.0001
305.917	-0.0003
306.291	0.0001
306.664	-0.001
307.038	-0.0009
307.412	0.0001
307.786	0.0006
308.16	0.0011
308.533	0.0003
308.907	0.0009
309.281	0.0013
309.654	0.0014
310.028	0.0012
310.401	0.0003
310.775	0
311.148	-0.0012
311.522	-0.002
311.895	-0.0009
312.268	-0.0002
312.642	0.0012
313.015	-0.0003
313.388	0.0003
313.761	-0.0002
314.135	0.0022
314.508	0.001
314.881	0.0011
315.254	-0.0007
315.627	0.0004
316	0.0011
316.373	0.0013
316.746	0.0014
317.118	0.0001
317.491	0.0011
317.864	0.0002
318.237	-0.0003
318.61	-0.0006
318.982	-0.0006
319.355	0.0019
319.727	0.0013
320.1	0.0022
320.473	0.0008
320.845	0.0001
321.218	-0.0018
321.59	-0.0018
321.962	-0.0008
322.335	0.0005
322.707	0.0006
323.079	0.0002
323.452	-0.0004
323.824	-0.0005
324.196	0.0006
324.568	0.0011
324.94	0.0009
325.312	-0.0004
325.684	-0.0008
326.056	-0.0013
326.428	-0.0012
326.8	-0.0016
327.172	-0.0002
327.544	-0.0015
327.915	-0.0006
328.287	-0.0015
328.659	0.0005
329.031	0.0009
329.402	0.0017
329.774	0.0011
330.145	0.0002
330.517	-0.0004
330.888	-0.0005
331.26	-0.0007
331.631	-0.0008
332.003	-0.0001
332.374	0.0011
332.745	0.0015
333.117	0.0015
333.488	0.0008
333.859	0.0008
334.23	-0.0002
334.601	0.0003
334.972	-0.0009
335.343	-0.0005
335.714	0.0002
336.085	0.0004
336.456	-0.0003
336.827	-0.0017
337.198	-0.0006
337.569	-0.0016
337.94	-0.0012
338.31	-0.0011
338.681	-0.0006
339.052	0.0002
339.422	-0.0007
339.793	-0.0008
340.164	-0.0009
340.534	-0.001
340.905	0.0003
341.275	0
341.645	-0.0008
342.016	-0.0017
342.386	-0.0026
342.756	-0.0009
343.127	-0.0009
343.497	-0.0012
343.867	-0.0012
344.237	0.0007
344.607	-0.0002
344.977	-0.0008
345.347	-0.002
345.717	-0.0012
346.087	-0.0019
346.457	-0.0021
346.827	-0.0016
347.197	-0.0012
347.567	0.0003
347.936	0.0013
348.306	0.0003
348.676	-0.0002
349.046	-0.0014
349.415	0.0003
349.785	0.0004
350.154	0
350.524	0.0006
350.893	-0
351.263	0.0003
351.632	0.0001
352.001	-0.0003
352.371	0.0006
352.74	-0.0008
353.109	-0.0006
353.478	-0.0012
353.847	-0.0009
354.217	-0.0002
354.586	0.0004
354.955	0.0008
355.324	0.0014
355.693	0.0001
356.062	0.0017
356.43	0.0002
356.799	0.0021
357.168	-0.0005
357.537	-0.0014
357.906	-0.0011
358.274	0.0005
358.643	-0.0001
359.011	-0.0027
359.38	-0.0035
359.749	-0.0022
360.117	0.0008
360.486	0.0007
360.854	0.0004
361.222	-0.0014
361.591	-0.0004
361.959	0.0001
362.327	0.0002
362.695	-0.0019
363.064	-0.0027
363.432	-0.0037
363.8	-0.0021
364.168	-0.0016
364.536	0.0003
364.904	0.0007
365.272	0.0017
365.64	0.0011
366.008	0.0003
366.376	-0.0006
366.743	-0.0031
367.111	-0.0037
367.479	-0.0034
367.847	-0.0016
368.214	-0.0019
368.582	-0.0022
368.949	-0.0021
369.317	-0.0013
369.684	-0.001
370.052	-0.0003
370.419	0
370.787	-0.0008
371.154	-0.0028
371.521	-0.0024
371.889	-0.0006
372.256	0.0027
372.623	0.0016
372.99	0.0013
373.357	-0.0012
373.724	-0.001
374.091	-0.0009
374.458	-0.0003
374.825	0.0007
375.192	-0.0007
375.559	-0.0007
375.926	-0.001
376.293	0.0004
376.659	0.0011
377.026	0.0006
377.393	0.0011
377.759	0.0014
378.126	0.0011
378.492	-0.0002
378.859	-0.0019
379.225	-0.0007
379.592	-0.001
379.958	-0.0026
380.325	-0.0045
380.691	-0.004
381.057	-0.0026
381.423	-0.0014
381.79	-0.0026
382.156	-0.0002
382.522	-0.0011
382.888	-0.0008
383.254	-0.0025
383.62	-0.0013
383.986	0.0016
384.352	0.0008
384.718	0.0007
385.084	-0.001
385.449	0.0001
385.815	0.0006
386.181	0.0002
386.547	0.0007
386.912	-0.0006
387.278	-0.0003
387.643	-0.0005
388.009	0.0011
388.374	0.0016
388.74	0.0022
389.105	0.0007
389.471	-0.001
389.836	-0.0025
390.201	-0.002
390.566	-0.0013
390.932	-0.0008
391.297	-0.0008
391.662	-0.0004
392.027	0.0012
392.392	0.0009
392.757	0.0005
393.122	-0.0001
393.487	-0.0001
393.852	-0.0005
394.217	-0.0031
394.582	-0.0036
394.946	-0.0027
395.311	-0.0012
395.676	0
396.04	0.0005
396.405	0.0007
396.77	-0.0014
397.134	-0.0014
397.499	-0.0012
397.863	0.0005
398.227	0.0011
398.592	0.0014
398.956	0.0013
399.32	0.0001
399.685	-0.0016
400.049	-0.0019
400.413	-0.0027
400.777	-0.0032
401.141	-0.0024
401.505	-0.0018
401.869	0.0003
402.233	-0.0001
402.597	0.0022
402.961	0.0008
403.325	0.0022
403.689	-0.0003
404.053	0.0005
404.416	-0.0006
404.78	-0.0003
405.144	-0.0011
405.507	-0.002
405.871	-0.0029
406.234	-0.0037
406.598	-0.0022
406.961	-0.0018
407.325	-0.0003
407.688	-0.0016
408.051	-0.0023
408.415	-0.0026
408.778	-0.0025
409.141	-0.0017
409.504	-0.0028
409.867	-0.002
410.23	-0.0014
410.593	-0.0002
410.956	-0.0014
411.319	-0.0008
411.682	-0.0001
412.045	0.0015
412.408	-0.0001
412.771	-0.001
413.134	-0.0014
413.496	0.0007
413.859	0.0024
414.222	0.0028
414.584	0.002
414.947	0.0002
415.309	0.0011
415.672	0.0004
416.034	-0.0009
416.396	-0.0021
416.759	-0.0015
417.121	-0
417.483	0.0006
417.846	0.0002
418.208	0.0012
418.57	0.0013
418.932	0.0032
419.294	0.0023
419.656	0.0021
420.018	0.0006
420.38	0.0003
420.742	-0
421.104	-0.0002
421.466	0.0016
421.827	0.0021
422.189	0.0026
422.551	0.0013
422.912	-0.0002
423.274	-0.001
423.636	-0.0028
423.997	-0.0008
424.359	-0.0004
424.72	0.0026
425.081	0.002
425.443	0.0033
425.804	0.0019
426.165	0.0007
426.527	0.0001
426.888	0.0001
427.249	0
427.61	-0.0001
427.971	-0.0006
428.332	0.0001
428.693	-0.0012
429.054	-0.0015
429.415	-0.0023
429.776	-0.0006
430.137	0.0001
430.498	0.0005
430.858	-0.0015
431.219	-0.0017
431.58	-0.0017
431.94	-0.0028
432.301	-0.0018
432.661	-0.0005
433.022	-0.0003
433.382	-0.0016
433.743	-0.0045
434.103	-0.0034
434.463	-0.0027
434.824	-0.0015
435.184	-0.0021
435.544	-0.0037
435.904	-0.0022
436.264	0.0014
436.624	0.0035
436.985	0.0016
437.345	-0.0011
437.704	-0.0023
438.064	-0.0021
438.424	-0.0011
438.784	-0.0005
439.144	-0.0002
439.504	-0.0003
439.863	-0.0006
440.223	-0.001
440.583	0.0001
440.942	0.0003
441.302	0.0017
441.661	0.0007
442.021	0.0004
442.38	-0.0007
442.739	-0.0023
443.099	-0.0018
443.458	-0.0025
443.817	0.0003
444.176	0.0001
444.536	0.0016
444.895	0.0014
445.254	0.0009
445.613	0.0032
445.972	0.0026
446.331	0.002
446.69	0
447.049	-0.0019
447.407	-0.0026
447.766	-0.0012
448.125	0.0002
448.484	0.0036
448.842	0.0001
449.201	-0.0012
449.559	-0.0027
449.918	-0.0008
450.276	0.0001
450.635	-0.0007
450.993	-0.0011
451.352	-0.001
451.71	-0.0005
452.068	-0.001
452.426	-0.0007
452.785	-0.0001
453.143	-0.0002
453.501	0.0007
453.859	0.0003
454.217	0.0003
454.575	0.0006
454.933	0.0009
455.291	-0.0002
455.649	-0.0014
456.006	-0.0028
456.364	-0.0021
456.722	-0.0023
457.079	-0.002
457.437	-0.0012
457.795	0.0003
458.152	0.0019
458.51	-0
458.867	-0.0021
459.225	-0.0031
459.582	-0.0009
459.939	-0.0011
460.297	-0.0027
460.654	-0.0032
461.011	-0.0018
461.368	0.0022
461.725	0.0033
462.082	0.0021
462.44	0.0025
462.797	0.0018
463.153	0.0016
463.51	-0.0005
463.867	0.0007
464.224	0.0007
464.581	-0
464.938	-0.0004
465.294	0.0017
465.651	0.001
466.008	0
466.364	-0.0012
466.721	0.0015
467.077	0.0011
467.434	-0.0003
467.79	-0.0038
468.146	-0.0043
468.503	-0.0008
468.859	0.0021
469.215	0.0026
469.571	0.002
469.927	-0.0001
470.284	0.0017
470.64	0.0009
470.996	0.0016
471.352	-0.0005
471.707	-0.0027
472.063	-0.0022
472.419	-0.0002
472.775	0.0001
473.131	0.0016
473.486	-0.0004
473.842	0.002
474.198	0.0007
474.553	0.0004
474.909	-0.001
475.264	-0.0001
475.62	0.0002
475.975	0.0001
476.331	-0.0003
476.686	-0.0001
477.041	-0.0013
477.396	-0.0018
477.752	-0.0003
478.107	0.0042
478.462	0.0051
478.817	0.0045
479.172	0.0003
479.527	-0.0021
479.882	-0.002
480.237	-0.0006
480.591	0.0007
480.946	0.0004
481.301	-0.0003
481.656	0.0003
482.01	0.0002
482.365	0.0003
482.72	0.0001
483.074	-0.0011
483.429	0.0001
483.783	-0.0014
484.137	-0.0003
484.492	-0.0023
484.846	-0.0022
485.2	-0.0021
485.555	-0.0002
485.909	-0.0008
486.263	-0.0017
486.617	-0.0018
486.971	0.0004
487.325	0.0011
487.679	0.0002
488.033	0
488.387	0.0004
488.741	0.0002
489.094	-0.0007
489.448	-0.0001
489.802	-0.001
490.156	-0.0016
490.509	-0.0033
490.863	-0.0019
491.216	-0.0012
491.57	0.0009
491.923	0.0009
492.277	0.0009
492.63	-0.0004
492.983	-0
493.337	0.0013
493.69	0.0023
494.043	0.0006
494.396	-0.0012
494.749	-0.001
495.102	-0.0014
495.455	-0
495.808	-0.0007
496.161	0.001
496.514	0.0003
496.867	0.0016
497.22	0.0012
497.572	0.0004
497.925	-0.001
498.278	-0.0009
498.63	0.0014
498.983	0.0013
499.335	0.0021
499.688	-0.0002
500.04	0.0001
500.393	-0
500.745	0.0002
501.097	-0.0013
501.449	-0.0024
501.802	-0.0034
502.154	-0.0028
502.506	-0.001
502.858	0.0005
503.21	0.002
503.562	0.0012
503.914	0.0019
504.266	0.0023
504.618	0.0022
504.969	0.0016
505.321	0.0002
505.673	0.0007
506.025	0.0004
506.376	-0.0004
506.728	-0.003
507.079	-0.0021
507.431	-0.0015
507.782	-0.0005
508.134	-0.0019
508.485	-0.0018
508.836	-0.0004
509.188	0.0004
509.539	0.0007
509.89	0.0002
510.241	0.0004
510.592	0.0003
510.943	-0.0008
511.294	-0.0006
511.645	-0.0022
511.996	-0.0021
512.347	-0.002
512.698	-0
513.049	0.0008
513.399	-0.0023
513.75	-0.0035
514.101	-0.0038
514.451	-0.0013
514.802	-0.0014
515.152	-0.0018
515.503	-0.0016
515.853	-0.0008
516.203	-0.0016
516.554	-0.0028
516.904	-0.0036
517.254	-0.0007
517.604	-0.0003
517.955	0.0008
518.305	-0.0018
518.655	-0.0009
519.005	-0.0002
519.355	0.0004
519.705	-0.0006
520.055	-0.0011
520.404	-0.0002
520.754	-0
521.104	-0.0002
521.454	-0.0008
521.803	-0.0004
522.153	0.0015
522.502	0.0007
522.852	-0.0008
523.201	-0.0022
523.551	-0.0017
523.9	-0.0007
524.249	-0.0017
524.599	-0.002
524.948	-0.0008
525.297	-0.0007
525.646	0.0001
525.995	-0.002
526.344	-0.002
526.694	-0.0006
527.042	0.0023
527.391	0.0015
527.74	-0.0009
528.089	-0.0018
528.438	-0.0003
528.787	-0.0001
529.135	-0.0008
529.484	-0.0007
529.833	-0.0008
530.181	-0.0015
530.53	-0.0038
530.878	-0.0022
531.227	-0.0016
531.575	-0.0025
531.923	-0.0039
532.271	-0.0024
532.62	0.0006
532.968	0.0017
533.316	0.0003
533.664	0.0005
534.012	-0.0015
534.36	0.0003
534.708	0.0003
535.056	0.003
535.404	0.0014
535.752	0.0007
536.1	-0.001
536.447	-0.0029
536.795	-0.0024
537.143	-0.0017
537.49	-0.0011
537.838	-0.0022
538.185	-0.0021
538.533	0.0012
538.88	-0.0015
539.228	-0.0018
539.575	-0.0046
539.922	-0.0013
540.269	-0.0026
540.617	-0.0017
540.964	0.0003
541.311	-0.0004
541.658	0.0004
542.005	0.0002
542.352	0.0035
542.699	0.002
543.045	-0.0014
543.392	-0.0044
543.739	-0.0031
544.086	-0.003
544.432	-0.0028
544.779	-0.0033
545.126	-0.0005
545.472	0.0006
545.819	0.0015
546.165	0.0017
546.512	0.0019
546.858	0.0021
547.204	0.0001
547.55	-0.0008
547.897	-0.0021
548.243	-0.0009
548.589	0.0002
548.935	-0.0027
549.281	-0.004
549.627	-0.0045
549.973	-0.0012
550.319	0.0006
550.665	0.0004
551.01	0.0006
551.356	0.0015
551.702	0.0014
552.048	0.0004
552.393	-0.0004
552.739	-0.0003
553.084	0.002
553.43	-0.0003
553.775	-0.0013
554.12	-0.004
554.466	-0.0017
554.811	-0.0009
555.156	-0.0003
555.502	-0.0015
555.847	-0.0002
556.192	-0.0003
556.537	-0.0007
556.882	-0.0016
557.227	-0.0047
557.572	-0.0032
557.917	-0.0037
558.261	-0.0014
558.606	-0.0023
558.951	-0.0015
559.295	-0.0006
559.64	-0.0015
559.985	-0.002
560.329	-0.0024
560.674	-0.0011
561.018	-0.0015
561.363	-0.0027
561.707	-0.0008
562.051	0.0002
562.395	0.0028
562.74	0.0006
563.084	0.0011
563.428	0.0002
563.772	-0.0007
564.116	-0.0021
564.46	-0.0023
564.804	-0.0004
565.148	-0.0006
565.492	0.0001
565.835	0.0005
566.179	0.0025
566.523	0.0012
566.866	-0.0011
567.21	-0.0027
567.554	-0.0026
567.897	-0.0008
568.24	-0.0028
568.584	-0.0035
568.927	-0.0039
569.271	-0.0018
569.614	-0.0007
569.957	-0.0015
570.3	-0.0009
570.643	-0.0003
570.986	-0.001
571.329	0.0001
571.672	-0.0008
572.015	0.0018
572.358	-0.0003
572.701	0.0011
573.044	-0.003
573.387	-0.002
573.729	-0.0025
574.072	-0.0006
574.414	0.0001
574.757	-0.0018
575.099	-0.0022
575.442	-0.0034
575.784	0
576.127	0.0005
576.469	-0.0001
576.811	-0.0011
577.153	-0.0014
577.496	-0.0021
577.838	-0.0013
578.18	-0.0036
578.522	-0.003
578.864	-0.0068
579.206	-0.0035
579.548	-0.0048
579.889	-0.0041
580.231	-0.0006
580.573	0.0008
580.915	-0.0001
581.256	-0.0026
581.598	-0.0043
581.939	-0.003
582.281	-0.0003
582.622	-0.0015
582.964	-0.0029
583.305	-0.007
583.646	-0.0034
583.988	0.0025
584.329	0.0002
584.67	-0
585.011	-0.0025
585.352	-0.0008
585.693	-0.0011
586.034	-0.0043
586.375	-0.0048
586.716	-0.0037
587.057	0.0008
587.398	0.0042
587.738	0.0043
588.079	0.0018
588.42	0.0002
588.76	-0.0035
589.101	-0.0024
589.441	-0.0032
589.782	0.0009
590.122	0.0029
590.463	0.0014
590.803	0.0002
591.143	-0.0021
591.483	-0.0012
591.823	-0.0036
592.164	-0.0037
592.504	-0.0029
592.844	0.0006
593.184	-0.0001
593.523	-0.0009
593.863	-0.0014
594.203	-0.0004
594.543	0.0018
594.883	0.0011
595.222	0.0012
595.562	0.0012
595.901	-0.0001
596.241	-0.0028
596.58	-0.0044
596.92	-0.0064
597.259	-0.0043
597.599	-0.0039
597.938	-0.0008
598.277	-0.0021
598.616	-0.0023
598.955	-0.0019
599.295	-0.003
599.634	-0.0016
599.973	-0.0047
600.312	-0.002
600.65	-0.0045
600.989	-0.0033
601.328	-0.0031
601.667	-0.0013
602.005	-0.0033
602.344	-0.0026
602.683	-0.001
603.021	0.0008
603.36	-0.0015
603.698	-0.0029
604.037	-0.0021
604.375	-0.0001
604.713	-0.0008
605.052	0.0002
605.39	0.0013
605.728	0.0005
606.066	0.0006
606.404	-0.0011
606.742	-0.0003
607.08	-0.0017
607.418	-0.0028
607.756	-0.0016
608.094	-0.0021
608.431	-0.0003
608.769	-0.0017
609.107	-0.0002
609.444	-0.0023
609.782	-0.0034
610.12	-0.005
610.457	-0.003
610.794	-0.0026
611.132	-0.0004
611.469	-0.0002
611.806	-0.0001
612.144	-0.0002
612.481	-0.0006
612.818	0.0013
613.155	-0.0008
613.492	-0.001
613.829	-0.0011
614.166	-0
614.503	-0.0008
614.84	-0.0034
615.176	-0.0027
615.513	-0.0039
615.85	-0.0028
616.187	-0.0019
616.523	-0.001
616.86	-0.0014
617.196	-0.0015
617.533	-0.0007
617.869	-0.002
618.205	-0.0034
618.542	-0.0039
618.878	-0.0028
619.214	-0.0023
619.55	-0.0009
619.886	-0.0023
620.222	-0.0029
620.558	-0.0021
620.894	0.0019
621.23	0.0043
621.566	0.0025
621.902	0.001
622.238	-0.0002
622.573	0.0012
622.909	0.001
623.244	0.0017
623.58	-0.0011
623.916	-0.0052
624.251	-0.0057
624.586	-0.0038
624.922	-0.0004
625.257	-0.0008
625.592	0.0006
625.927	0.0009
626.263	-0.0004
626.598	-0.0033
626.933	-0.005
627.268	-0.001
627.603	-0.0018
627.938	-0.0024
628.272	-0.0049
628.607	-0.0044
628.942	-0.0035
629.277	-0.0013
629.611	-0.0003
629.946	0.0015
630.281	-0.0015
630.615	-0.0033
630.949	-0.0055
631.284	-0.0071
631.618	-0.0015
631.953	-0.0008
632.287	0.0001
632.621	-0.0048
632.955	-0.0029
633.289	-0.0014
633.623	0.0031
633.957	0.0007
634.291	-0.0005
634.625	-0.0014
634.959	-0.002
635.293	-0.0032
635.627	-0.004
635.96	-0.0041
636.294	-0.0018
636.627	-0.0039
636.961	-0.0032
637.294	-0.0031
637.628	-0.0028
637.961	-0.003
638.295	-0.0048
638.628	-0.0025
638.961	-0.0001
639.294	-0.0004
639.628	-0.0015
639.961	-0.0019
640.294	-0.0032
640.627	-0.0038
640.96	-0.0081
641.293	-0.005
641.625	-0.0041
641.958	-0.0004
642.291	-0.0007
642.624	-0.0009
642.956	-0.0035
643.289	-0.0049
643.621	-0.0024
643.954	-0.0017
644.286	-0.0024
644.619	-0.0033
644.951	-0.0036
645.283	-0.006
645.616	-0.0091
645.948	-0.0088
646.28	-0.0047
646.612	-0.0048
646.944	-0.0053
647.276	-0.007
647.608	-0.006
647.94	-0.0041
648.272	-0.0009
648.603	0.0002
648.935	0.0016
649.267	0
649.598	-0
649.93	-0.0052
650.261	-0.0035
650.593	-0.0059
650.924	0
651.256	-0.0034
651.587	-0.0039
651.918	-0.0066
652.25	-0.0047
652.581	-0.002
652.912	-0.0019
653.243	-0.0031
653.574	-0.0038
653.905	-0.0041
654.236	-0.0006
654.567	-0.0006
654.897	0.0006
655.228	-0.0023
655.559	-0.0013
655.89	-0.0023
656.22	-0.0001
656.551	-0.0015
656.881	-0.0006
657.212	-0.001
657.542	0.0018
657.872	0.0012
658.203	-0.0007
658.533	0.009
658.863	-0.0007
659.193	-0.0023
659.523	-0.0093
659.853	-0.0097
660.183	-0.0116
660.513	-0.0087
660.843	-0.0047
661.173	-0.0004
661.503	-0.0002
661.833	-0.0015
662.162	-0.0038
662.492	-0.0087
662.822	-0.0094
663.151	-0.0079
663.481	-0.0026
663.81	-0.0012
664.139	0.0022
664.469	-0.0002
664.798	0.0002
665.127	-0.0013
665.456	-0.0017
665.785	-0.0013
666.114	-0.0059
666.443	-0.0049
666.772	-0.0061
667.101	-0.0051
667.43	-0.0045
667.759	-0.0028
668.088	-0.0021
668.416	-0.0021
668.745	-0.0068
669.074	-0.0092
669.402	-0.0075
669.731	-0.0021
670.059	-0.0001
670.388	0.0024
670.716	-0.0033
671.044	-0.0008
671.372	-0.0051
671.701	-0.0024
672.029	-0.0045
672.357	-0.0048
672.685	-0.0046
673.013	-0.003
673.341	-0.0045
673.669	-0.0077
673.996	-0.0121
674.324	-0.0111
674.652	-0.0088
674.98	-0.0042
675.307	-0.0017
675.635	-0.0018
675.962	-0.0055
676.29	-0.0056
676.617	-0.0029
676.945	0.0007
677.272	-0.0015
677.599	-0.0024
677.926	-0.0012
678.253	0.0019
678.581	0.0025
678.908	0.0006
679.235	-0.0019
679.561	0.0001
679.888	-0.0013
680.215	0.0019
680.542	-0.0016
680.869	-0.0006
681.195	-0.0029
681.522	-0.0007
681.849	-0.0012
682.175	-0.0006
682.502	-0.0049
682.828	-0.0066
683.154	-0.0102
683.481	-0.0079
683.807	-0.0058
684.133	0.0008
684.459	0.001
684.785	0.0052
685.111	-0.0024
685.437	-0.0034
685.763	-0.0101
686.089	-0.0075
686.415	-0.0021
686.741	0.0005
687.067	0.0014
687.392	-0.0021
687.718	-0.0019
688.043	0.0027
688.369	0.0033
688.694	0.0017
689.02	-0.0021
689.345	-0.0033
689.67	-0.001
689.996	-0.0021
690.321	-0.0045
690.646	-0.0072
690.971	-0.0067
691.296	-0.0043
691.621	-0.001
691.946	-0.003
692.271	-0.0035
692.596	-0.0052
692.921	-0.0032
693.245	-0.0009
693.57	-0.0009
693.895	-0.0008
694.219	-0.0045
694.544	-0.0054
694.868	-0.0076
695.193	-0.0054
695.517	-0.0054
695.841	-0.0046
696.166	-0.0065
696.49	-0.0048
696.814	-0.0041
697.138	-0.0056
697.462	-0.0076
697.786	-0.0082
698.11	-0.0033
698.434	-0.0041
698.758	-0.0047
699.081	-0.009
699.405	-0.0042
699.729	-0.0008
700.052	-0.0014
700.376	-0.0035
700.7	-0.0081
701.023	-0.007
701.346	-0.0071
701.67	-0.0026
701.993	-0.0031
702.316	-0.0028
702.639	-0.0033
702.963	-0.0015
703.286	-0.0034
703.609	-0.0026
703.932	-0.0033
704.255	-0.0025
704.578	-0.0013
704.9	-0.0013
705.223	0.0002
705.546	-0.0012
705.868	-0.0009
706.191	-0.0008
706.514	-0.0013
706.836	-0.0033
707.159	-0.0023
707.481	-0.0017
707.803	-0.0008
708.126	-0.0006
708.448	0.0012
708.77	0.0022
709.092	-0.0034
709.414	-0.0066
709.736	-0.0078
710.058	-0.0029
710.38	-0.0046
710.702	-0.0024
711.024	-0.0057
711.345	-0.0015
711.667	-0.0018
711.989	0.0001
712.31	-0.0016
712.632	-0.0051
712.953	-0.0026
713.275	-0.0014
713.596	-0.0001
713.917	-0.0039
714.239	-0.0049
714.56	-0.0045
714.881	-0.0024
715.202	-0.0016
715.523	0.0007
715.844	-0.001
716.165	-0.0019
716.486	-0.0035
716.807	-0.0042
717.128	-0.0037
717.448	-0.0035
717.769	-0.0001
718.09	0.0015
718.41	0.0031
718.731	-0.0019
719.051	-0.0018
719.372	-0.0028
719.692	0.0049
720.012	0.0054
720.332	0.0058
720.653	0.0027
720.973	0.0018
721.293	0.0011
721.613	0.0009
721.933	-0.0015
722.253	-0.0037
722.573	-0.0073
722.892	-0.0085
723.212	-0.0068
723.532	-0.0045
723.851	-0.0045
724.171	-0.0062
724.491	-0.0046
724.81	-0.0023
725.129	-0.0044
725.449	-0.0074
725.768	-0.0088
726.087	-0.0067
726.407	-0.0062
726.726	-0.0072
727.045	-0.006
727.364	-0.0041
727.683	-0.0034
728.002	-0.0047
728.321	-0.0073
728.64	-0.0073
728.958	-0.0057
729.277	-0.0037
729.596	-0.0013
729.914	-0.0043
730.233	-0.0036
730.551	-0.0055
730.87	-0.0014
731.188	-0.005
731.507	-0.0053
731.825	-0.0041
732.143	-0.0039
732.461	-0.002
732.779	-0.0054
733.097	-0.0048
733.415	-0.002
733.733	-0.0015
734.051	-0.0025
734.369	-0.0063
734.687	-0.0056
735.005	-0.0012
735.322	-0.0028
735.64	-0.0053
735.957	-0.0098
736.275	-0.0059
736.592	-0.003
736.91	0.0011
737.227	-0.0029
737.544	-0.0052
737.862	-0.0096
738.179	-0.0061
738.496	-0.0043
738.813	-0.0003
739.13	-0.0025
739.447	-0.0007
739.764	0.0023
740.081	0.0007
740.398	-0.0022
740.714	-0.007
741.031	-0.0025
741.348	-0.0016
741.664	-0.0025
741.981	-0.0054
742.297	-0.0059
742.614	-0.0075
742.93	-0.0076
743.246	-0.0073
743.563	-0.0054
743.879	-0.0022
744.195	-0.0064
744.511	-0.0066
744.827	-0.0065
745.143	0
745.459	0.0044
745.775	0.005
746.091	0.0064
746.406	0.0055
746.722	0.0015
747.038	-0.0035
747.353	-0.0075
747.669	-0.0041
747.984	-0.0035
748.3	-0.002
748.615	-0.0021
748.93	-0.0022
749.246	-0.0027
749.561	-0.0051
749.876	-0.008
750.191	-0.0095
750.506	-0.0136
750.821	-0.0103
751.136	-0.009
751.451	-0.0075
751.766	-0.0095
752.08	-0.005
752.395	-0.0034
752.71	-0.0016
753.024	-0.0045
753.339	-0.0029
753.653	-0.005
753.968	-0.0072
754.282	-0.0103
754.596	-0.0073
754.911	-0.0046
755.225	-0.0019
755.539	-0.0043
755.853	-0.0046
756.167	-0.0077
756.481	-0.0111
756.795	-0.0126
757.109	-0.009
757.423	-0.0054
757.736	-0.0077
758.05	-0.0086
758.364	-0.0114
758.677	-0.0123
758.991	-0.0094
759.304	-0.0048
759.618	0.0015
759.931	-0.0015
760.244	-0.0008
760.558	-0.0036
760.871	-0.0024
761.184	-0.0032
761.497	-0.0048
761.81	-0.0039
762.123	-0.0021
762.436	0.0044
762.749	0.0017
763.062	-0.001
763.374	-0.005
763.687	-0.0034
764	-0.0025
764.312	-0.0036
764.625	-0.0063
764.937	-0.0067
765.25	-0.01
765.562	-0.0087
765.874	-0.0091
766.186	-0.0057
766.499	-0.0048
766.811	-0.0036
767.123	-0.0046
767.435	-0.0021
767.747	-0.0039
768.059	-0.0033
768.37	-0.0067
768.682	-0.0083
768.994	-0.0094
769.306	-0.0097
769.617	-0.009
769.929	-0.0108
770.24	-0.0113
770.552	-0.0084
770.863	-0.004
771.174	-0.0012
771.486	-0.0026
771.797	-0.0032
772.108	-0.0031
772.419	-0.001
772.73	0.002
773.041	-0.001
773.352	-0.006
773.663	-0.0093
773.974	-0.0071
774.285	-0.0055
774.595	-0.0063
774.906	-0.0124
775.217	-0.0118
775.527	-0.0082
775.838	-0.0021
776.148	0.0016
776.458	-0.0025
776.769	-0.0034
777.079	-0.0062
777.389	-0.0037
777.699	-0.005
778.009	-0.0085
778.319	-0.006
778.629	-0.0078
778.939	-0.0043
779.249	-0.0086
779.559	-0.0047
779.869	-0.0033
780.178	-0.002
780.488	-0.0034
780.798	-0.0064
781.107	-0.005
781.417	-0.0063
781.726	-0.0102
782.035	-0.0101
782.345	-0.0058
782.654	-0.0021
782.963	-0.0042
783.272	-0.0079
783.581	-0.0046
783.89	-0.003
784.199	-0.0035
784.508	-0.0075
784.817	-0.0091
785.126	-0.008
785.434	-0.0062
785.743	-0.0085
786.052	-0.009
786.36	-0.0095
786.669	-0.0051
786.977	-0.0044
787.285	-0.0064
787.594	-0.007
787.902	-0.0063
788.21	-0.0056
788.518	-0.004
788.826	-0.0076
789.135	-0.0062
789.442	-0.0098
789.75	-0.0068
790.058	-0.0072
790.366	-0.0049
790.674	-0.0018
790.981	-0.0002
791.289	-0.0002
791.597	-0.0031
791.904	-0.0033
792.212	-0.004
792.519	-0.0075
792.826	-0.0048
793.134	-0.0044
793.441	-0.0011
793.748	-0.0039
794.055	-0.0051
794.362	-0.0028
794.669	-0.0021
794.976	-0.0008
795.283	-0.001
795.59	0.0004
795.897	-0.0027
796.203	-0.003
796.51	-0.0054
796.817	-0.0002
797.123	-0.0036
797.43	-0.0043
797.736	-0.0107
798.042	-0.009
798.349	-0.0074
798.655	-0.0037
798.961	-0.0083
799.267	-0.009
799.573	-0.0061
799.879	-0.0027
800.185	-0.0081
800.491	-0.0142
800.797	-0.0146
801.103	-0.009
801.408	-0.0061
801.714	-0.0053
802.02	-0.0067
802.325	-0.0056
802.631	-0.0004
802.936	0.0009
803.242	0.0026
803.547	-0.0038
803.852	-0.0037
804.157	-0.0043
804.462	-0.0012
804.768	-0.002
805.073	-0.0069
805.378	-0.0079
805.682	-0.0079
805.987	-0.0068
806.292	-0.0025
806.597	-0.0068
806.902	-0.0051
807.206	-0.0147
807.511	-0.0074
807.815	-0.0074
808.12	-0.004
808.424	-0.0049
808.728	-0.0052
809.033	-0.0052
809.337	-0.0119
809.641	-0.0098
809.945	-0.0094
810.249	-0.0035
810.553	-0.0066
810.857	-0.0053
811.161	-0.0047
811.465	-0.0032
811.768	-0.0004
812.072	-0.0066
812.376	-0.0085
812.679	-0.0161
812.983	-0.0153
813.286	-0.0092
813.59	-0.0048
813.893	-0.0006
814.196	-0.0084
814.499	-0.0053
814.803	-0.0106
815.106	-0.01
815.409	-0.0093
815.712	-0.0003
816.015	0.005
816.318	-0.0016
816.62	-0.0058
816.923	-0.012
817.226	-0.0096
817.528	-0.0132
817.831	-0.0151
818.133	-0.0122
818.436	-0.0077
818.738	-0.0018
819.041	-0.0027
819.343	0.0017
819.645	0.0056
819.947	-0.0022
820.249	-0.0027
820.551	-0.0131
820.853	-0.0069
821.155	-0.0143
821.457	-0.0094
821.759	-0.0046
822.061	0.0014
822.362	0.0083
822.664	0.0061
822.966	0.0008
823.267	-0.0088
823.569	-0.0127
823.87	-0.0082
824.171	0.0003
824.473	-0.0005
824.774	-0.002
825.075	-0.01
825.376	-0.0066
825.677	-0.0071
825.978	-0.0077
826.279	-0.0081
826.58	-0.0111
826.881	-0.0108
827.181	-0.0138
827.482	-0.0112
827.783	-0.0077
828.083	-0.0016
828.384	-0.003
828.684	-0.0089
828.985	-0.0151
829.285	-0.0134
829.585	-0.0094
829.885	-0.0032
830.185	0.0004
830.486	0.0011
830.786	-0.0013
831.086	-0.0027
831.385	0.0008
831.685	-0.0011
831.985	-0.0031
832.285	-0.0074
832.585	-0.0067
832.884	-0.0116
833.184	-0.0041
833.483	-0.0006
833.783	0.009
834.082	0.002
834.381	-0.0062
834.681	-0.0125
834.98	-0.0174
835.279	-0.0135
835.578	-0.0157
835.877	-0.0067
836.176	-0.0041
836.475	0.0046
836.774	-0.003
837.072	-0.001
837.371	-0.005
837.67	0.0014
837.968	-0.0061
838.267	-0.0054
838.565	-0.0065
838.864	-0.0059
839.162	-0.0099
839.46	-0.0106
839.759	-0.0047
840.057	0.0026
840.355	0.0032
840.653	0.0013
840.951	-0.0073
841.249	-0.0069
841.547	-0.0086
841.845	-0.0015
842.142	0.0019
842.44	0.0059
842.738	0.0049
843.035	-0.0064
843.333	-0.0111
843.63	-0.0213
843.928	-0.0136
844.225	-0.0043
844.522	0.0048
844.82	-0.0017
845.117	-0.0045
845.414	-0.003
845.711	0.0013
846.008	-0.004
846.305	-0.0084
846.602	-0.0086
846.898	-0.0146
847.195	-0.0167
847.492	-0.0211
847.788	-0.028
848.085	-0.0181
848.382	-0.005
848.678	0.0066
848.974	-0.0016
849.271	-0.0038
849.567	-0.0127
849.863	-0.017
850.159	-0.0206
850.455	-0.0105
850.751	0.0042
851.047	0.005
851.343	0.0046
851.639	0.0001
851.935	-0.0123
852.23	-0.0139
852.526	-0.0155
852.822	-0.0134
853.117	-0.0108
853.413	-0.0076
853.708	0.007
854.003	0.0045
854.299	0.0001
854.594	-0.0057
854.889	-0.0046
855.184	-0.0017
855.479	-0.0064
855.774	-0.0041
856.069	-0.0058
856.364	-0.011
856.659	-0.025
856.954	-0.0269
857.248	-0.0145
857.543	-0.0024
857.837	-0.0103
858.132	-0.0163
858.426	-0.015
858.721	-0.024
859.015	-0.0226
859.309	-0.0269
859.604	-0.0059
859.898	-0.0143
860.192	-0.0133
860.486	-0.0218
860.78	-0.0153
861.074	-0.0109
861.367	-0.0036
861.661	-0.0124
861.955	-0.0217
862.248	-0.0211
862.542	-0.0175
862.836	-0.0197
863.129	-0.0227
863.422	-0.0228
863.716	-0.0148
864.009	-0.0169
864.302	-0.0055
864.595	0.0095
864.889	0.0035
865.182	0.0101
865.475	-0.001
865.767	0.0165
866.06	0.0043
866.353	0.0086
866.646	-0.0101
866.938	-0.0066
867.231	0.0005
867.524	0.0189
867.816	0.0095
868.109	-0.0093
868.401	-0.0193
868.693	-0.0135
868.985	-0.008
869.278	0.0025
869.57	-0.0018
869.862	0.0024
870.154	-0.0001
870.446	0.014
870.738	0.0066
871.029	-0.0068
871.321	-0.0042
871.613	-0.0113
871.904	-0.0112
872.196	-0.0082
872.487	-0.0018
872.779	0.0019
873.07	-0.0203
873.362	-0.0008
873.653	-0.0005
873.944	0.0134
874.235	-0.005
874.526	-0.0123
874.817	-0.0077
875.108	-0.0097
875.399	0.0007
875.69	-0.0183
875.981	-0.0052
876.271	-0.0154
876.562	-0.0031
876.853	-0.0173
877.143	-0.007
877.434	-0.0357
877.724	-0.0095
878.014	-0.0183
878.305	0.0031
878.595	-0.0295
878.885	-0.0238
879.175	-0.0273
879.465	-0.0226
879.755	-0.0344
880.045	-0.0172
880.335	-0.0018
880.624	0.0163
880.914	0.0163
