Data from DIblank3_081117_1b_Absorbance_11-27-57-435.txt Node
Date: Fri Aug 11 11:27:57 MDT 2017
User: Tank Lab
Spectrometer: FLMS01220
Trigger mode: 0
Integration Time (sec): 1.000000E-1
Scans to average: 10
Electric dark correction enabled: true
Nonlinearity correction enabled: false
Boxcar width: 1
XAxis mode: Wavelengths
Number of Pixels in Spectrum: 2048
>>>>>Begin Spectral Data<<<<<
179.47	-0.1607
179.856	-0.1607
180.241	-0.1084
180.626	-0.6507
181.011	-0
181.396	-0.4896
181.781	-0.2255
182.166	-0.4694
182.551	-0
182.936	-0
183.321	-0
183.706	-0
184.091	-0
184.476	-0.6233
184.86	0.0002
185.245	0.0725
185.63	-0
186.015	-0
186.399	-0
186.784	-0.5543
187.169	0.7945
187.553	0.1568
187.938	0.0822
188.322	0.0327
188.707	-0.0052
189.091	-0.0412
189.475	-0.042
189.86	-0.0386
190.244	-0.023
190.629	-0.0037
191.013	0.005
191.397	0.0116
191.781	0.0046
192.165	0.0014
192.55	0.0039
192.934	0.0071
193.318	0.0002
193.702	-0.0056
194.086	-0.0048
194.47	0.0017
194.854	0.0042
195.238	-0.0011
195.622	-0.0071
196.006	-0.0131
196.389	-0.0092
196.773	-0.0065
197.157	-0.0038
197.541	-0.0054
197.924	-0.0038
198.308	-0.0005
198.692	0.0015
199.075	-0.0017
199.459	-0.0035
199.843	-0.0024
200.226	-0.0011
200.61	-0.0007
200.993	-0.0045
201.376	-0.0048
201.76	-0.0052
202.143	-0.0034
202.527	-0.0014
202.91	-0.0031
203.293	-0.0041
203.676	-0.0055
204.059	-0.0015
204.443	-0.0003
204.826	0.0008
205.209	-0.0025
205.592	-0.0004
205.975	0.0006
206.358	-0.0011
206.741	-0.0039
207.124	-0.0062
207.507	-0.0045
207.89	-0.0045
208.273	-0.0029
208.655	-0.0043
209.038	-0.0053
209.421	-0.0052
209.804	-0.0053
210.186	-0.0047
210.569	-0.0045
210.951	-0.0031
211.334	-0.0029
211.717	-0.0016
212.099	-0.0024
212.482	-0.0022
212.864	-0.0039
213.246	-0.0014
213.629	-0.0024
214.011	-0.0033
214.393	-0.0036
214.776	-0.0016
215.158	-0.0008
215.54	-0.0014
215.922	-0.0019
216.305	-0.0026
216.687	-0.0028
217.069	-0.0055
217.451	-0.0042
217.833	-0.0045
218.215	-0.001
218.597	-0.0037
218.979	-0.0035
219.361	-0.0034
219.742	-0.0035
220.124	-0.0036
220.506	-0.0045
220.888	-0.0021
221.27	-0.0023
221.651	-0.0023
222.033	-0.0016
222.415	-0.0028
222.796	-0.0021
223.178	-0.0025
223.559	0.0016
223.941	0.0018
224.322	0.0022
224.704	0.0006
225.085	0.0002
225.466	-0.0011
225.848	-0.0019
226.229	-0.0038
226.61	-0.0029
226.992	-0.0033
227.373	-0.0027
227.754	-0.0054
228.135	-0.0052
228.516	-0.0042
228.897	-0.0009
229.278	-0.0023
229.659	-0.002
230.04	-0.0034
230.421	-0.003
230.802	-0.0029
231.183	-0.0018
231.564	0.0001
231.944	-0.0029
232.325	-0.0036
232.706	-0.0046
233.087	-0.0028
233.467	-0.0038
233.848	-0.0037
234.229	-0.0033
234.609	-0.0026
234.99	-0.0039
235.37	-0.0033
235.751	-0.0027
236.131	-0.0023
236.511	-0.0026
236.892	-0.0044
237.272	-0.0037
237.652	-0.0035
238.033	-0.0031
238.413	-0.0024
238.793	-0.0025
239.173	-0.0025
239.553	-0.0044
239.933	-0.0031
240.313	-0.0015
240.694	0.001
241.074	-0.0007
241.453	-0.0001
241.833	-0.0011
242.213	-0.0012
242.593	-0.0028
242.973	-0.0039
243.353	-0.0041
243.732	-0.0038
244.112	-0.0031
244.492	-0.0035
244.872	-0.003
245.251	-0.0023
245.631	-0.0023
246.01	-0.004
246.39	-0.0047
246.769	-0.0034
247.149	-0.0025
247.528	-0.0023
247.908	-0.0038
248.287	-0.0034
248.666	-0.0036
249.045	-0.0027
249.425	-0.0019
249.804	-0.002
250.183	-0.0034
250.562	-0.0045
250.941	-0.004
251.32	-0.0016
251.699	-0.0013
252.078	-0.0022
252.457	-0.0032
252.836	-0.0039
253.215	-0.0032
253.594	-0.0037
253.973	-0.0042
254.352	-0.0046
254.731	-0.0046
255.109	-0.0034
255.488	-0.004
255.867	-0.0034
256.245	-0.0037
256.624	-0.0026
257.002	-0.0025
257.381	-0.0029
257.759	-0.0022
258.138	-0.0036
258.516	-0.0021
258.895	-0.0034
259.273	-0.0023
259.651	-0.0036
260.03	-0.0042
260.408	-0.0035
260.786	-0.0027
261.164	-0.0012
261.542	-0.002
261.921	-0.0038
262.299	-0.0054
262.677	-0.0048
263.055	-0.0049
263.433	-0.0042
263.811	-0.0046
264.188	-0.0024
264.566	-0.0015
264.944	-0.0016
265.322	-0.0034
265.7	-0.003
266.077	-0.0036
266.455	-0.0021
266.833	-0.0038
267.21	-0.0029
267.588	-0.004
267.966	-0.0022
268.343	-0.0025
268.721	-0.0005
269.098	-0.0006
269.475	-0.0001
269.853	-0.0024
270.23	-0.0035
270.607	-0.0027
270.985	-0.004
271.362	-0.0039
271.739	-0.005
272.116	-0.0032
272.494	-0.0016
272.871	-0.0026
273.248	-0.0039
273.625	-0.0067
274.002	-0.0062
274.379	-0.0042
274.756	-0.0028
275.132	-0.001
275.509	-0.0006
275.886	-0.0014
276.263	-0.0037
276.64	-0.0043
277.016	-0.0043
277.393	-0.0035
277.77	-0.0034
278.146	-0.0023
278.523	-0.0038
278.899	-0.004
279.276	-0.0045
279.652	-0.0042
280.029	-0.0049
280.405	-0.004
280.782	-0.0032
281.158	-0.0021
281.534	-0.0015
281.91	-0.0018
282.287	-0.0026
282.663	-0.004
283.039	-0.0032
283.415	-0.0044
283.791	-0.0041
284.167	-0.0035
284.543	-0.0007
284.919	0.001
285.295	0.0005
285.671	-0.0013
286.047	-0.0027
286.423	-0.0024
286.799	-0.0028
287.174	-0.0038
287.55	-0.0036
287.926	-0.0023
288.301	-0.0029
288.677	-0.0037
289.053	-0.0054
289.428	-0.0045
289.804	-0.0041
290.179	-0.0026
290.555	-0.0008
290.93	-0.001
291.305	-0.0032
291.681	-0.0057
292.056	-0.0069
292.431	-0.0049
292.806	-0.0026
293.182	-0.0001
293.557	0.0003
293.932	-0.0005
294.307	-0.0014
294.682	-0.0031
295.057	-0.0048
295.432	-0.0053
295.807	-0.0036
296.182	-0.0028
296.557	-0.0031
296.932	-0.0028
297.306	-0.0006
297.681	0.0001
298.056	-0.0014
298.43	-0.0029
298.805	-0.0038
299.18	-0.0031
299.554	-0.0034
299.929	-0.0021
300.303	-0.0026
300.678	-0.0029
301.052	-0.0029
301.427	-0.0019
301.801	-0.0014
302.175	-0.0018
302.55	-0.0016
302.924	-0.0012
303.298	-0.0019
303.672	-0.0032
304.046	-0.003
304.421	-0.0018
304.795	-0.0002
305.169	0.0001
305.543	-0.0007
305.917	-0.0024
306.291	-0.002
306.664	-0.0013
307.038	-0.002
307.412	-0.0034
307.786	-0.0034
308.16	-0.0019
308.533	-0.0026
308.907	-0.003
309.281	-0.0029
309.654	-0.0025
310.028	-0.0037
310.401	-0.0042
310.775	-0.0029
311.148	-0.001
311.522	-0.0001
311.895	-0.0015
312.268	-0.0026
312.642	-0.0019
313.015	0.0007
313.388	0.0019
313.761	0.0012
314.135	-0.0012
314.508	-0.0016
314.881	-0.0009
315.254	-0.0004
315.627	-0.0008
316	-0.0012
316.373	-0.0006
316.746	-0.0006
317.118	-0.0016
317.491	-0.0019
317.864	-0.0005
318.237	-0.0004
318.61	-0.0005
318.982	-0.0019
319.355	-0.0013
319.727	-0.003
320.1	-0.0023
320.473	-0.0032
320.845	-0.0046
321.218	-0.0051
321.59	-0.0056
321.962	-0.0028
322.335	-0.0028
322.707	-0.0015
323.079	-0.0017
323.452	-0.0019
323.824	-0.0026
324.196	-0.0035
324.568	-0.0035
324.94	-0.0029
325.312	-0.0018
325.684	-0.0013
326.056	-0.0021
326.428	-0.0015
326.8	-0.0029
327.172	-0.0006
327.544	-0.0012
327.915	-0.0017
328.287	-0.0021
328.659	-0.003
329.031	-0.0014
329.402	-0.0021
329.774	-0.0007
330.145	-0.0021
330.517	-0.0015
330.888	-0.0016
331.26	-0.0002
331.631	-0.0014
332.003	-0.0027
332.374	-0.0035
332.745	-0.0027
333.117	-0.003
333.488	-0.0027
333.859	-0.0024
334.23	-0.0023
334.601	-0.0012
334.972	-0.0018
335.343	-0.0016
335.714	-0.0026
336.085	-0.0043
336.456	-0.0043
336.827	-0.0032
337.198	-0.0012
337.569	-0.0008
337.94	-0.0019
338.31	-0.0009
338.681	-0.0001
339.052	0.001
339.422	-0.0002
339.793	-0.0011
340.164	-0.002
340.534	-0.0003
340.905	-0.0001
341.275	-0.0004
341.645	-0.0019
342.016	-0.001
342.386	-0.0007
342.756	-0.0004
343.127	0.0001
343.497	-0.0011
343.867	-0.0017
344.237	-0.0041
344.607	-0.0031
344.977	-0.0013
345.347	-0.001
345.717	-0.0001
346.087	-0.003
346.457	-0.0027
346.827	-0.0046
347.197	-0.0032
347.567	-0.0043
347.936	-0.0027
348.306	-0.0028
348.676	-0.0006
349.046	-0.0016
349.415	-0.0008
349.785	-0.0003
350.154	0.0001
350.524	-0.0008
350.893	-0.0017
351.263	-0.0031
351.632	-0.003
352.001	-0.0036
352.371	-0.0016
352.74	-0.0028
353.109	-0.0025
353.478	-0.0028
353.847	-0.0013
354.217	-0.0008
354.586	-0.0005
354.955	-0.002
355.324	-0.0021
355.693	-0.002
356.062	-0.0016
356.43	-0.0024
356.799	-0.0039
357.168	-0.0049
357.537	-0.0051
357.906	-0.0038
358.274	-0.0012
358.643	-0.0014
359.011	-0.0029
359.38	-0.004
359.749	-0.002
360.117	-0.0008
360.486	-0.001
360.854	-0.0016
361.222	-0.0024
361.591	-0.0039
361.959	-0.0056
362.327	-0.0057
362.695	-0.0033
363.064	-0.0008
363.432	-0.0007
363.8	-0.0034
364.168	-0.0043
364.536	-0.0056
364.904	-0.0031
365.272	-0.0044
365.64	-0.003
366.008	-0.003
366.376	-0.0025
366.743	-0.001
367.111	-0.003
367.479	-0.003
367.847	-0.0044
368.214	-0.0027
368.582	-0.0031
368.949	-0.0034
369.317	-0.0035
369.684	-0.0019
370.052	-0.0006
370.419	0.0006
370.787	-0.0016
371.154	-0.0033
371.521	-0.0048
371.889	-0.0047
372.256	-0.004
372.623	-0.0048
372.99	-0.0033
373.357	-0.0052
373.724	-0.0041
374.091	-0.0055
374.458	-0.0036
374.825	-0.002
375.192	-0.0005
375.559	-0.0002
375.926	-0.0016
376.293	-0.0032
376.659	-0.0015
377.026	-0.0011
377.393	0.0009
377.759	-0.0013
378.126	-0.001
378.492	-0.0031
378.859	-0.003
379.225	-0.0045
379.592	-0.0037
379.958	-0.003
380.325	-0.0032
380.691	-0.0017
381.057	-0.0011
381.423	-0.0005
381.79	-0.0013
382.156	-0.0025
382.522	-0.0022
382.888	-0.0036
383.254	-0.0042
383.62	-0.0016
383.986	-0.0016
384.352	-0.0009
384.718	-0.0037
385.084	-0.0018
385.449	-0.0009
385.815	-0.0002
386.181	-0.0005
386.547	-0.0007
386.912	-0.0013
387.278	-0.0022
387.643	-0.0031
388.009	-0.0054
388.374	-0.0051
388.74	-0.0046
389.105	-0.0019
389.471	-0.0038
389.836	-0.0045
390.201	-0.0047
390.566	-0.0025
390.932	-0.0031
391.297	-0.0025
391.662	-0.0023
392.027	-0.0008
392.392	-0.0028
392.757	-0.003
393.122	-0.0032
393.487	-0.0028
393.852	-0.0017
394.217	-0.0027
394.582	-0.0015
394.946	-0.0036
395.311	-0.0037
395.676	-0.0049
396.04	-0.006
396.405	-0.0047
396.77	-0.0054
397.134	-0.0028
397.499	-0.004
397.863	-0.0034
398.227	-0.0036
398.592	-0.0024
398.956	-0.0022
399.32	-0.0029
399.685	-0.0038
400.049	-0.0012
400.413	0.0001
400.777	-0.0005
401.141	-0.0022
401.505	-0.0022
401.869	-0.0014
402.233	-0.0004
402.597	-0.0018
402.961	-0.0027
403.325	-0.0024
403.689	-0.002
404.053	-0.0022
404.416	-0.0042
404.78	-0.0048
405.144	-0.0046
405.507	-0.0042
405.871	-0.0033
406.234	-0.0015
406.598	-0.0007
406.961	0.0012
407.325	-0.0002
407.688	-0.0028
408.051	-0.0043
408.415	-0.0045
408.778	-0.0032
409.141	-0.0027
409.504	-0.004
409.867	-0.0021
410.23	-0.0038
410.593	-0.0014
410.956	-0.0034
411.319	-0.0018
411.682	-0.0022
412.045	-0.0017
412.408	-0.0012
412.771	-0.0015
413.134	-0.0003
413.496	-0.0021
413.859	-0.0022
414.222	-0.0013
414.584	-0.0016
414.947	-0.0026
415.309	-0.0035
415.672	-0.0035
416.034	-0.0023
416.396	-0.0037
416.759	-0.0048
417.121	-0.0026
417.483	-0
417.846	0.0043
418.208	0.0018
418.57	-0.0004
418.932	-0.0019
419.294	-0.0026
419.656	-0.0022
420.018	-0.0023
420.38	0.0002
420.742	0.0011
421.104	-0.0029
421.466	-0.0023
421.827	-0.0016
422.189	0.0017
422.551	-0.0006
422.912	-0.0039
423.274	-0.0064
423.636	-0.0051
423.997	-0.0018
424.359	0.0002
424.72	0.0003
425.081	-0.0016
425.443	-0.0026
425.804	-0.0028
426.165	-0.0044
426.527	-0.0036
426.888	-0.0046
427.249	-0.0043
427.61	-0.0052
427.971	-0.0056
428.332	-0.0053
428.693	-0.0009
429.054	-0.0003
429.415	0.0016
429.776	-0.0008
430.137	0.0009
430.498	-0.0019
430.858	-0.0052
431.219	-0.0075
431.58	-0.007
431.94	-0.0046
432.301	-0.005
432.661	-0.0044
433.022	-0.0038
433.382	-0.0023
433.743	-0.0011
434.103	-0.001
434.463	-0.0009
434.824	-0.0011
435.184	-0.003
435.544	-0.0049
435.904	-0.005
436.264	-0.0048
436.624	-0.0035
436.985	-0.0047
437.345	-0.0014
437.704	0.0002
438.064	0.0021
438.424	-0.0011
438.784	-0.0014
439.144	-0.0038
439.504	-0.0034
439.863	-0.0052
440.223	-0.003
440.583	-0.0014
440.942	0.001
441.302	-0.0025
441.661	-0.0044
442.021	-0.0067
442.38	-0.0009
442.739	0.0012
443.099	0.0001
443.458	0.0007
443.817	-0.0007
444.176	0.0002
444.536	-0.0053
444.895	-0.0053
445.254	-0.0056
445.613	-0.0045
445.972	-0.0057
446.331	-0.0031
446.69	-0.0023
447.049	-0.0012
447.407	-0.0041
447.766	-0.005
448.125	-0.005
448.484	-0.004
448.842	-0.0038
449.201	-0.0044
449.559	-0.0037
449.918	-0.003
450.276	-0.0013
450.635	-0.0015
450.993	-0.0027
451.352	-0.0035
451.71	-0.0049
452.068	-0.004
452.426	-0.0053
452.785	-0.0049
453.143	-0.0046
453.501	-0.006
453.859	-0.004
454.217	-0.0048
454.575	-0.0022
454.933	-0.0026
455.291	0.0003
455.649	-0.0007
456.006	-0.0016
456.364	-0.0023
456.722	-0.0008
457.079	0.0021
457.437	-0.0009
457.795	-0.0027
458.152	-0.0062
458.51	-0.0037
458.867	-0.0013
459.225	0.0012
459.582	0.0005
459.939	-0.0024
460.297	-0.0025
460.654	-0.0028
461.011	-0.0007
461.368	-0.0055
461.725	-0.0029
462.082	-0.004
462.44	-0
462.797	-0.0007
463.153	0.0001
463.51	-0.0018
463.867	-0.0057
464.224	-0.0049
464.581	-0.0011
464.938	0.0028
465.294	0.0035
465.651	-0.0013
466.008	-0.0044
466.364	-0.0046
466.721	-0.0047
467.077	-0.0023
467.434	-0.0051
467.79	-0.0029
468.146	-0.004
468.503	-0.0031
468.859	-0.0023
469.215	-0.0005
469.571	-0.0018
469.927	-0.005
470.284	-0.0073
470.64	-0.0074
470.996	-0.0053
471.352	-0.0054
471.707	-0.0034
472.063	-0.001
472.419	0.0008
472.775	0.0007
473.131	-0.0016
473.486	-0.0025
473.842	-0.0048
474.198	-0.0037
474.553	-0.0021
474.909	0.0025
475.264	0.0032
475.62	0.0006
475.975	-0.0004
476.331	-0.0015
476.686	-0.0028
477.041	-0.0039
477.396	-0.0031
477.752	0.0005
478.107	0.0006
478.462	0.0006
478.817	-0.0009
479.172	-0.0006
479.527	-0.001
479.882	-0.0002
480.237	-0.001
480.591	-0.0042
480.946	-0.0042
481.301	-0.0033
481.656	0.0003
482.01	0
482.365	-0.0009
482.72	-0.0022
483.074	-0.0034
483.429	-0.0022
483.783	-0.0017
484.137	-0.0023
484.492	-0.0034
484.846	-0.0042
485.2	-0.0011
485.555	-0.0015
485.909	-0.0005
486.263	-0.0031
486.617	-0.0055
486.971	-0.0057
487.325	-0.0038
487.679	-0.0028
488.033	-0.0064
488.387	-0.0061
488.741	-0.0049
489.094	-0.002
489.448	-0.003
489.802	-0.0027
490.156	-0.0013
490.509	-0.0028
490.863	-0.0041
491.216	-0.0062
491.57	-0.0034
491.923	-0.0011
492.277	0.0002
492.63	-0.0025
492.983	-0.0059
493.337	-0.0065
493.69	-0.0065
494.043	-0.0034
494.396	-0.005
494.749	-0.0007
495.102	-0.0023
495.455	-0.0032
495.808	-0.0055
496.161	-0.0045
496.514	-0.0032
496.867	-0.0026
497.22	-0.0018
497.572	-0.002
497.925	-0.0031
498.278	-0.0056
498.63	-0.0038
498.983	-0.0028
499.335	-0.0019
499.688	-0.004
500.04	-0.0044
500.393	-0.0043
500.745	-0.0027
501.097	-0.0014
501.449	-0.0003
501.802	-0.0027
502.154	-0.0064
502.506	-0.0081
502.858	-0.0073
503.21	-0.0047
503.562	-0.0032
503.914	-0.0011
504.266	-0.002
504.618	0.0003
504.969	-0.0033
505.321	-0.002
505.673	-0.0045
506.025	-0.001
506.376	-0.0001
506.728	-0.0006
507.079	-0.0027
507.431	-0.0057
507.782	-0.0041
508.134	-0.0035
508.485	-0.001
508.836	-0.005
509.188	-0.0034
509.539	-0.0044
509.89	-0.0037
510.241	-0.0056
510.592	-0.0071
510.943	-0.0057
511.294	-0.0071
511.645	-0.0049
511.996	-0.0035
512.347	-0.0012
512.698	-0.0037
513.049	-0.0071
513.399	-0.0068
513.75	-0.0046
514.101	-0.0027
514.451	-0.0019
514.802	-0.0039
515.152	-0.0035
515.503	-0.0024
515.853	-0.0017
516.203	-0.0023
516.554	-0.0012
516.904	0.0001
517.254	0.0019
517.604	-0.002
517.955	-0.0017
518.305	-0.0016
518.655	0.0002
519.005	-0.0016
519.355	-0.0039
519.705	-0.0045
520.055	-0.0045
520.404	-0.0047
520.754	-0.0058
521.104	-0.0076
521.454	-0.0052
521.803	-0.004
522.153	-0.0016
522.502	-0.0021
522.852	-0.0046
523.201	-0.0058
523.551	-0.0084
523.9	-0.0034
524.249	-0.0019
524.599	0.0007
524.948	-0.0049
525.297	-0.0076
525.646	-0.0112
525.995	-0.0096
526.344	-0.005
526.694	-0.001
527.042	0.0005
527.391	-0.0029
527.74	-0.0037
528.089	-0.0035
528.438	-0.0009
528.787	-0.0009
529.135	-0.002
529.484	-0.003
529.833	-0.0016
530.181	-0.002
530.53	-0.0024
530.878	-0.0068
531.227	-0.0037
531.575	-0.0054
531.923	-0.0011
532.271	-0.0044
532.62	-0.0051
532.968	-0.0069
533.316	-0.0077
533.664	-0.0072
534.012	-0.0056
534.36	-0.0037
534.708	-0.0011
535.056	-0.0021
535.404	-0.0022
535.752	0.0007
536.1	-0.0014
536.447	-0.004
536.795	-0.0065
537.143	-0.007
537.49	-0.0062
537.838	-0.0083
538.185	-0.0044
538.533	-0.0071
538.88	-0.0076
539.228	-0.0112
539.575	-0.0054
539.922	-0.0017
540.269	-0.0014
540.617	-0.003
540.964	-0.0055
541.311	-0.0056
541.658	-0.0085
542.005	-0.0074
542.352	-0.0083
542.699	-0.0078
543.045	-0.0101
543.392	-0.0098
543.739	-0.0054
544.086	-0.0059
544.432	-0.002
544.779	-0.0024
545.126	-0.0011
545.472	-0.0026
545.819	-0.0045
546.165	-0.0072
546.512	-0.0099
546.858	-0.0083
547.204	-0.0061
547.55	-0.0042
547.897	-0.0083
548.243	-0.008
548.589	-0.0109
548.935	-0.0074
549.281	-0.0043
549.627	-0.0041
549.973	-0.0045
550.319	-0.0068
550.665	-0.0052
551.01	-0.0061
551.356	-0.0066
551.702	-0.0081
552.048	-0.0082
552.393	-0.0085
552.739	-0.003
553.084	-0.0023
553.43	-0.0013
553.775	-0.0052
554.12	-0.0065
554.466	-0.0092
554.811	-0.006
555.156	-0.0065
555.502	-0.0066
555.847	-0.0098
556.192	-0.0083
556.537	-0.0092
556.882	-0.0105
557.227	-0.0114
557.572	-0.0085
557.917	-0.008
558.261	-0.0073
558.606	-0.0074
558.951	-0.0089
559.295	-0.01
559.64	-0.0105
559.985	-0.0043
560.329	-0.004
560.674	-0.0053
561.018	-0.0113
561.363	-0.0108
561.707	-0.0091
562.051	-0.0062
562.395	-0.007
562.74	-0.008
563.084	-0.0096
563.428	-0.0094
563.772	-0.0095
564.116	-0.0067
564.46	-0.0067
564.804	-0.0059
565.148	-0.0045
565.492	-0.0068
565.835	-0.0076
566.179	-0.0096
566.523	-0.0078
566.866	-0.0072
567.21	-0.0084
567.554	-0.0078
567.897	-0.0097
568.24	-0.0077
568.584	-0.0055
568.927	-0.0034
569.271	-0.0046
569.614	-0.0042
569.957	-0.0024
570.3	-0.005
570.643	-0.0076
570.986	-0.009
571.329	-0.0034
571.672	-0.0032
572.015	-0.0045
572.358	-0.0087
572.701	-0.0089
573.044	-0.0077
573.387	-0.0024
573.729	-0.0028
574.072	-0.0029
574.414	-0.0066
574.757	-0.0085
575.099	-0.01
575.442	-0.01
575.784	-0.0085
576.127	-0.0067
576.469	-0.0074
576.811	-0.0048
577.153	-0.0064
577.496	-0.0065
577.838	-0.0107
578.18	-0.0101
578.522	-0.0102
578.864	-0.0075
579.206	-0.0073
579.548	-0.0069
579.889	-0.0056
580.231	-0.0042
580.573	-0.0061
580.915	-0.0065
581.256	-0.0093
581.598	-0.0093
581.939	-0.0088
582.281	-0.0085
582.622	-0.0072
582.964	-0.0099
583.305	-0.0085
583.646	-0.006
583.988	-0.0038
584.329	-0.0059
584.67	-0.0066
585.011	-0.0086
585.352	-0.0071
585.693	-0.0087
586.034	-0.0073
586.375	-0.0072
586.716	-0.0089
587.057	-0.0089
587.398	-0.0069
587.738	-0.0068
588.079	-0.0056
588.42	-0.0066
588.76	-0.0065
589.101	-0.0073
589.441	-0.0053
589.782	-0.0044
590.122	-0.0058
590.463	-0.007
590.803	-0.0079
591.143	-0.0107
591.483	-0.0143
591.823	-0.0134
592.164	-0.01
592.504	-0.0078
592.844	-0.0084
593.184	-0.0097
593.523	-0.0117
593.863	-0.0106
594.203	-0.0086
594.543	-0.0085
594.883	-0.0078
595.222	-0.0048
595.562	-0.0064
595.901	-0.0084
596.241	-0.0104
596.58	-0.0095
596.92	-0.008
597.259	-0.0075
597.599	-0.0041
597.938	-0.0086
598.277	-0.0113
598.616	-0.0125
598.955	-0.0091
599.295	-0.0102
599.634	-0.0075
599.973	-0.0087
600.312	-0.0054
600.65	-0.0089
600.989	-0.0046
601.328	-0.0023
601.667	-0.0028
602.005	-0.0064
602.344	-0.0103
602.683	-0.0107
603.021	-0.0109
603.36	-0.012
603.698	-0.0124
604.037	-0.0118
604.375	-0.0093
604.713	-0.0068
605.052	-0.0076
605.39	-0.0072
605.728	-0.0087
606.066	-0.0086
606.404	-0.0089
606.742	-0.0094
607.08	-0.0104
607.418	-0.0093
607.756	-0.007
608.094	-0.0053
608.431	-0.0061
608.769	-0.0097
609.107	-0.0081
609.444	-0.0092
609.782	-0.0044
610.12	-0.0066
610.457	-0.007
610.794	-0.0088
611.132	-0.0075
611.469	-0.0061
611.806	-0.0098
612.144	-0.0109
612.481	-0.0107
612.818	-0.0105
613.155	-0.0127
613.492	-0.0128
613.829	-0.008
614.166	-0.0072
614.503	-0.0087
614.84	-0.0091
615.176	-0.009
615.513	-0.0076
615.85	-0.0071
616.187	-0.0071
616.523	-0.0081
616.86	-0.0089
617.196	-0.0103
617.533	-0.012
617.869	-0.0137
618.205	-0.0134
618.542	-0.0153
618.878	-0.0165
619.214	-0.0151
619.55	-0.0125
619.886	-0.0122
620.222	-0.0084
620.558	-0.0089
620.894	-0.0075
621.23	-0.0119
621.566	-0.0102
621.902	-0.0098
622.238	-0.0094
622.573	-0.0118
622.909	-0.0129
623.244	-0.0127
623.58	-0.0119
623.916	-0.0089
624.251	-0.0042
624.586	-0.002
624.922	-0.004
625.257	-0.0095
625.592	-0.0111
625.927	-0.0134
626.263	-0.0125
626.598	-0.0141
626.933	-0.0109
627.268	-0.008
627.603	-0.005
627.938	-0.0029
628.272	-0.0031
628.607	-0.0024
628.942	-0.0069
629.277	-0.0069
629.611	-0.0088
629.946	-0.0075
630.281	-0.0078
630.615	-0.0104
630.949	-0.0108
631.284	-0.0099
631.618	-0.0056
631.953	-0.0057
632.287	-0.0123
632.621	-0.016
632.955	-0.015
633.289	-0.0121
633.623	-0.0119
633.957	-0.015
634.291	-0.0118
634.625	-0.0107
634.959	-0.0083
635.293	-0.0103
635.627	-0.0091
635.96	-0.0045
636.294	-0.0037
636.627	-0.0072
636.961	-0.0116
637.294	-0.006
637.628	-0.003
637.961	-0.0119
638.295	-0.0122
638.628	-0.0111
638.961	-0.0029
639.294	-0.0082
639.628	-0.0105
639.961	-0.0118
640.294	-0.0114
640.627	-0.0106
640.96	-0.0117
641.293	-0.0142
641.625	-0.0125
641.958	-0.0103
642.291	-0.0097
642.624	-0.0149
642.956	-0.0199
643.289	-0.0158
643.621	-0.0108
643.954	-0.0088
644.286	-0.0136
644.619	-0.0169
644.951	-0.0172
645.283	-0.0094
645.616	-0.0087
645.948	-0.0069
646.28	-0.0111
646.612	-0.0105
646.944	-0.0107
647.276	-0.0126
647.608	-0.0102
647.94	-0.0122
648.272	-0.0112
648.603	-0.0097
648.935	-0.0096
649.267	-0.0115
649.598	-0.0136
649.93	-0.0127
650.261	-0.0082
650.593	-0.0088
650.924	-0.0109
651.256	-0.0089
651.587	-0.0054
651.918	0.0012
652.25	-0.0041
652.581	-0.013
652.912	-0.0191
653.243	-0.0203
653.574	-0.0126
653.905	-0.0098
654.236	-0.0102
654.567	-0.0109
654.897	-0.0138
655.228	-0.0093
655.559	-0.0055
655.89	-0.0062
656.22	-0.0104
656.551	-0.014
656.881	-0.0068
657.212	-0.004
657.542	-0.002
657.872	-0.0044
658.203	-0
658.533	0.0005
658.863	-0.0073
659.193	-0.0111
659.523	-0.0193
659.853	-0.018
660.183	-0.0146
660.513	-0.012
660.843	-0.0121
661.173	-0.0097
661.503	-0.0136
661.833	-0.0145
662.162	-0.0162
662.492	-0.0108
662.822	-0.0135
663.151	-0.0107
663.481	-0.0126
663.81	-0.0084
664.139	-0.0148
664.469	-0.015
664.798	-0.0078
665.127	0.0007
665.456	0.0024
665.785	-0.004
666.114	-0.0023
666.443	-0.0029
666.772	-0.0018
667.101	-0.0041
667.43	-0.0113
667.759	-0.0124
668.088	-0.0152
668.416	-0.0131
668.745	-0.0155
669.074	-0.0169
669.402	-0.0108
669.731	-0.0025
670.059	-0.0051
670.388	-0.0094
670.716	-0.015
671.044	-0.0109
671.372	-0.0108
671.701	-0.0094
672.029	-0.0133
672.357	-0.0141
672.685	-0.0145
673.013	-0.0133
673.341	-0.0132
673.669	-0.0136
673.996	-0.0094
674.324	-0.0073
674.652	-0.005
674.98	-0.0074
675.307	-0.0066
675.635	-0.0123
675.962	-0.0107
676.29	-0.0162
676.617	-0.0151
676.945	-0.0202
677.272	-0.02
677.599	-0.0175
677.926	-0.0125
678.253	-0.0105
678.581	-0.0088
678.908	-0.0085
679.235	-0.0085
679.561	-0.0137
679.888	-0.0135
680.215	-0.0118
680.542	-0.0083
680.869	-0.0117
681.195	-0.0128
681.522	-0.0093
681.849	-0.0041
682.175	-0.0033
682.502	-0.0101
682.828	-0.013
683.154	-0.0116
683.481	-0.0053
683.807	-0.0051
684.133	-0.0066
684.459	-0.0061
684.785	-0.0105
685.111	-0.0144
685.437	-0.0203
685.763	-0.0171
686.089	-0.0131
686.415	-0.0135
686.741	-0.0161
687.067	-0.0134
687.392	-0.0119
687.718	-0.0075
688.043	-0.0089
688.369	-0.0098
688.694	-0.0124
689.02	-0.0098
689.345	-0.0077
689.67	-0.0024
689.996	-0.007
690.321	-0.0077
690.646	-0.0128
690.971	-0.01
691.296	-0.0123
691.621	-0.0073
691.946	-0.0098
692.271	-0.0045
692.596	-0.009
692.921	-0.0105
693.245	-0.0165
693.57	-0.0139
693.895	-0.0113
694.219	-0.01
694.544	-0.0096
694.868	-0.0118
695.193	-0.0108
695.517	-0.0127
695.841	-0.013
696.166	-0.0132
696.49	-0.0131
696.814	-0.0118
697.138	-0.0136
697.462	-0.0141
697.786	-0.0132
698.11	-0.0078
698.434	-0.0074
698.758	-0.008
699.081	-0.0089
699.405	-0.0106
699.729	-0.0085
700.052	-0.0089
700.376	-0.0055
700.7	0.0001
701.023	-0.0008
701.346	-0.0047
701.67	-0.0101
701.993	-0.0063
702.316	-0.0068
702.639	-0.0088
702.963	-0.0094
703.286	-0.0107
703.609	-0.0112
703.932	-0.0191
704.255	-0.0101
704.578	-0.0097
704.9	-0.0067
705.223	-0.0142
705.546	-0.0169
705.868	-0.0165
706.191	-0.0138
706.514	-0.0114
706.836	-0.0077
707.159	-0.0075
707.481	-0.0083
707.803	-0.0085
708.126	-0.0118
708.448	-0.0102
708.77	-0.0149
709.092	-0.0114
709.414	-0.0083
709.736	-0.0077
710.058	-0.0075
710.38	-0.012
710.702	-0.0119
711.024	-0.0133
711.345	-0.0076
711.667	-0.0055
711.989	-0.0107
712.31	-0.0159
712.632	-0.019
712.953	-0.0154
713.275	-0.0119
713.596	-0.0124
713.917	-0.008
714.239	-0.0068
714.56	0.0025
714.881	-0.0015
715.202	-0.0034
715.523	-0.0116
715.844	-0.0104
716.165	-0.0112
716.486	-0.0112
716.807	-0.0105
717.128	-0.0134
717.448	-0.0115
717.769	-0.0121
718.09	-0.013
718.41	-0.0142
718.731	-0.0126
719.051	-0.013
719.372	-0.0173
719.692	-0.0222
720.012	-0.0229
720.332	-0.0227
720.653	-0.022
720.973	-0.0176
721.293	-0.0099
721.613	-0.0087
721.933	-0.0081
722.253	-0.0123
722.573	-0.0141
722.892	-0.0176
723.212	-0.0156
723.532	-0.0115
723.851	-0.0081
724.171	-0.0092
724.491	-0.0124
724.81	-0.0105
725.129	-0.0133
725.449	-0.014
725.768	-0.0158
726.087	-0.0102
726.407	-0.0114
726.726	-0.0141
727.045	-0.0139
727.364	-0.0101
727.683	-0.0055
728.002	-0.0073
728.321	-0.0073
728.64	-0.0105
728.958	-0.0119
729.277	-0.0133
729.596	-0.0138
729.914	-0.0141
730.233	-0.0093
730.551	-0.0082
730.87	-0.0082
731.188	-0.0088
731.507	-0.0067
731.825	-0.0033
732.143	-0.001
732.461	-0.003
732.779	-0.0044
733.097	-0.0093
733.415	-0.0109
733.733	-0.0136
734.051	-0.0131
734.369	-0.0127
734.687	-0.0126
735.005	-0.0143
735.322	-0.0208
735.64	-0.0196
735.957	-0.0205
736.275	-0.0149
736.592	-0.0162
736.91	-0.0131
737.227	-0.0135
737.544	-0.0162
737.862	-0.0186
738.179	-0.0178
738.496	-0.0116
738.813	-0.0086
739.13	-0.0092
739.447	-0.0115
739.764	-0.0114
740.081	-0.011
740.398	-0.0128
740.714	-0.0126
741.031	-0.0124
741.348	-0.0142
741.664	-0.0109
741.981	-0.0142
742.297	-0.012
742.614	-0.0151
742.93	-0.0084
743.246	-0.0066
743.563	-0.0125
743.879	-0.0144
744.195	-0.0162
744.511	-0.0095
744.827	-0.011
745.143	-0.0108
745.459	-0.0111
745.775	-0.0118
746.091	-0.0123
746.406	-0.0147
746.722	-0.0122
747.038	-0.0105
747.353	-0.0082
747.669	-0.0105
747.984	-0.0099
748.3	-0.0133
748.615	-0.0155
748.93	-0.0184
749.246	-0.0137
749.561	-0.0115
749.876	-0.0077
750.191	-0.0102
750.506	-0.0091
750.821	-0.0152
751.136	-0.0127
751.451	-0.0107
751.766	-0.0071
752.08	-0.0113
752.395	-0.0147
752.71	-0.0158
753.024	-0.0171
753.339	-0.0167
753.653	-0.013
753.968	-0.0089
754.282	-0.008
754.596	-0.0064
754.911	-0.0151
755.225	-0.014
755.539	-0.011
755.853	-0.0009
756.167	0.0014
756.481	-0.002
756.795	-0.0061
757.109	-0.0096
757.423	-0.0138
757.736	-0.0105
758.05	-0.0092
758.364	-0.0076
758.677	-0.0094
758.991	-0.0104
759.304	-0.012
759.618	-0.0123
759.931	-0.0119
760.244	-0.0105
760.558	-0.0087
760.871	-0.009
761.184	-0.0104
761.497	-0.01
761.81	-0.0102
762.123	-0.0073
762.436	-0.0083
762.749	-0.0063
763.062	-0.006
763.374	-0.0076
763.687	-0.01
764	-0.0155
764.312	-0.0156
764.625	-0.0155
764.937	-0.0141
765.25	-0.0178
765.562	-0.0157
765.874	-0.0148
766.186	-0.0112
766.499	-0.0148
766.811	-0.0161
767.123	-0.0172
767.435	-0.0141
767.747	-0.009
768.059	-0.0083
768.37	-0.0095
768.682	-0.0151
768.994	-0.0144
769.306	-0.0154
769.617	-0.0103
769.929	-0.0132
770.24	-0.0099
770.552	-0.0104
770.863	-0.0059
771.174	-0.0074
771.486	-0.0116
771.797	-0.0162
772.108	-0.0212
772.419	-0.0195
772.73	-0.0146
773.041	-0.0085
773.352	-0.0079
773.663	-0.0108
773.974	-0.0088
774.285	-0.0114
774.595	-0.0054
774.906	-0.0105
775.217	-0.0069
775.527	-0.0146
775.838	-0.0143
776.148	-0.0187
776.458	-0.0152
776.769	-0.014
777.079	-0.015
777.389	-0.0155
777.699	-0.0093
778.009	-0.0067
778.319	-0.0058
778.629	-0.0203
778.939	-0.0179
779.249	-0.0166
779.559	-0.0096
779.869	-0.0078
780.178	-0.0108
780.488	-0.0163
780.798	-0.0231
781.107	-0.0298
781.417	-0.0188
781.726	-0.0143
782.035	-0.0055
782.345	-0.0092
782.654	-0.012
782.963	-0.0148
783.272	-0.0129
783.581	-0.0144
783.89	-0.0133
784.199	-0.0133
784.508	-0.0156
784.817	-0.0163
785.126	-0.0167
785.434	-0.0145
785.743	-0.0094
786.052	-0.0102
786.36	-0.0111
786.669	-0.0201
786.977	-0.025
787.285	-0.0139
787.594	-0.0082
787.902	-0.0054
788.21	-0.0159
788.518	-0.0175
788.826	-0.014
789.135	-0.0175
789.442	-0.0221
789.75	-0.0275
790.058	-0.0217
790.366	-0.0193
790.674	-0.0138
790.981	-0.0134
791.289	-0.016
791.597	-0.0173
791.904	-0.0137
792.212	-0.0095
792.519	-0.0179
792.826	-0.0235
793.134	-0.0258
793.441	-0.0185
793.748	-0.0158
794.055	-0.0113
794.362	-0.0112
794.669	-0.0167
794.976	-0.0172
795.283	-0.0225
795.59	-0.0143
795.897	-0.0132
796.203	-0.0107
796.51	-0.008
796.817	-0.0066
797.123	-0.0034
797.43	-0.0046
797.736	-0.0136
798.042	-0.015
798.349	-0.0186
798.655	-0.0109
798.961	-0.0106
799.267	-0.0065
799.573	-0.0064
799.879	-0.0072
800.185	-0.0102
800.491	-0.0096
800.797	-0.0042
801.103	0.0027
801.408	0.0002
801.714	-0.0071
802.02	-0.0158
802.325	-0.0099
802.631	-0.0063
802.936	-0.0051
803.242	-0.0056
803.547	-0.0047
803.852	-0.0008
804.157	-0.0059
804.462	-0.0143
804.768	-0.0136
805.073	-0.0171
805.378	-0.0086
805.682	-0.0082
805.987	-0.013
806.292	-0.0149
806.597	-0.0143
806.902	-0.0043
807.206	-0.011
807.511	-0.0131
807.815	-0.0168
808.12	-0.0061
808.424	-0.0077
808.728	-0.0092
809.033	-0.0102
809.337	-0.0048
809.641	0.0044
809.945	-0.0059
810.249	-0.0133
810.553	-0.0195
810.857	-0.0114
811.161	-0.0071
811.465	-0.0086
811.768	-0.0058
812.072	-0.0046
812.376	-0.0005
812.679	-0.0023
812.983	-0.0068
813.286	-0.007
813.59	-0.0171
813.893	-0.0197
814.196	-0.0213
814.499	-0.0173
814.803	-0.019
815.106	-0.0188
815.409	-0.025
815.712	-0.0168
816.015	-0.0191
816.318	-0.0082
816.62	-0.0173
816.923	-0.0181
817.226	-0.0174
817.528	-0.0146
817.831	-0.0105
818.133	-0.0127
818.436	-0.007
818.738	-0.0094
819.041	-0.01
819.343	-0.0125
819.645	-0.0142
819.947	-0.0153
820.249	-0.0203
820.551	-0.0203
820.853	-0.0084
821.155	-0.0038
821.457	-0.0044
821.759	-0.0158
822.061	-0.0187
822.362	-0.0158
822.664	-0.0088
822.966	-0.0083
823.267	-0.0064
823.569	-0.0145
823.87	-0.0092
824.171	-0.0087
824.473	-0.0054
824.774	-0.014
825.075	-0.0218
825.376	-0.0253
825.677	-0.0205
825.978	-0.016
826.279	-0.0064
826.58	-0.0053
826.881	-0.0081
827.181	-0.0143
827.482	-0.0124
827.783	-0.0104
828.083	-0.0189
828.384	-0.0167
828.684	-0.0122
828.985	0.0019
829.285	-0.0043
829.585	-0.0098
829.885	-0.014
830.185	0.0014
830.486	0.008
830.786	-0.0002
831.086	-0.0184
831.385	-0.024
831.685	-0.016
831.985	-0.015
832.285	-0.0134
832.585	-0.0071
832.884	-0.0152
833.184	-0.0196
833.483	-0.0326
833.783	-0.0177
834.082	-0.0201
834.381	-0.0142
834.681	-0.0254
834.98	-0.0222
835.279	-0.0239
835.578	-0.0144
835.877	-0.0164
836.176	-0.014
836.475	-0.0192
836.774	-0.0227
837.072	-0.0144
837.371	-0.0133
837.67	-0.0011
837.968	-0.0027
838.267	0.0091
838.565	0.0061
838.864	0.0066
839.162	-0.0076
839.46	-0.0152
839.759	-0.014
840.057	-0.008
840.355	0.0037
840.653	-0.0041
840.951	0.0019
841.249	-0.0004
841.547	-0.0015
841.845	-0.0105
842.142	-0.0143
842.44	-0.0135
842.738	-0.025
843.035	-0.0162
843.333	-0.0181
843.63	-0.0093
843.928	-0.0216
844.225	-0.0225
844.522	-0.028
844.82	-0.0217
845.117	-0.0056
845.414	0.0011
845.711	-0.0008
846.008	-0.0134
846.305	-0.0173
846.602	-0.0198
846.898	-0.0204
847.195	-0.0098
847.492	-0.009
847.788	-0.0042
848.085	-0.0193
848.382	-0.0047
848.678	-0.0216
848.974	0.0029
849.271	-0.0093
849.567	0.001
849.863	0.0008
850.159	0.0021
850.455	-0.0063
850.751	-0.0139
851.047	-0.0256
851.343	-0.0144
851.639	-0.0155
851.935	-0.0087
852.23	-0.0112
852.526	-0.0194
852.822	-0.0027
853.117	0.0016
853.413	0.0198
853.708	-0.0028
854.003	-0.0113
854.299	-0.0325
854.594	-0.0254
854.889	-0.0221
855.184	-0.0043
855.479	0.0017
855.774	0.0195
856.069	-0.0122
856.364	-0.0283
856.659	-0.0375
856.954	-0.0155
857.248	0.0051
857.543	0.0015
857.837	-0.0121
858.132	-0.0152
858.426	-0.012
858.721	-0.0025
859.015	-0.0152
859.309	-0.015
859.604	-0.0156
859.898	-0.0136
860.192	-0.0139
860.486	-0.008
860.78	0.0189
861.074	0.0243
861.367	0.0097
861.661	-0.013
861.955	-0.027
862.248	-0.021
862.542	-0.0278
862.836	-0.0164
863.129	-0.0189
863.422	-0.0137
863.716	-0.0086
864.009	0.0116
864.302	-0.0123
864.595	-0.0074
864.889	-0.0154
865.182	-0.0086
865.475	-0.0295
865.767	-0.0384
866.06	-0.0396
866.353	-0.0336
866.646	-0.0198
866.938	0.0049
867.231	0.0142
867.524	0.0178
867.816	0.0186
868.109	0.0115
868.401	0.0017
868.693	-0.0038
868.985	0.0053
869.278	0.0377
869.57	0.0331
869.862	0.0194
870.154	-0.0071
870.446	-0.0072
870.738	-0.0123
871.029	0.0052
871.321	0.0247
871.613	0.0406
871.904	0.0374
872.196	0.0182
872.487	0.0195
872.779	0.0219
873.07	0.0284
873.362	0.0084
873.653	-0.023
873.944	-0.023
874.235	0.0103
874.526	0.0249
874.817	0.0244
875.108	-0.0254
875.399	-0.0313
875.69	-0.0347
875.981	-0.0177
876.271	0.0145
876.562	-0.0155
876.853	-0.01
877.143	-0.0557
877.434	-0.0393
877.724	-0.0746
878.014	-0.055
878.305	-0.0525
878.595	-0.0425
878.885	-0.0622
879.175	-0.0711
879.465	-0.0435
879.755	-0.0236
880.045	-0.0093
880.335	-0.0117
880.624	-0.0087
880.914	-0.0087
