Data from DIblank2_080617_1a_Absorbance_16-00-59-154.txt Node
Date: Sun Aug 06 16:00:59 MDT 2017
User: Tank Lab
Spectrometer: FLMS01220
Trigger mode: 0
Integration Time (sec): 1.000000E-1
Scans to average: 10
Electric dark correction enabled: true
Nonlinearity correction enabled: false
Boxcar width: 1
XAxis mode: Wavelengths
Number of Pixels in Spectrum: 2048
>>>>>Begin Spectral Data<<<<<
179.47	0.1025
179.856	0.1025
180.241	0.337
180.626	1.3521
181.011	-0
181.396	-0
181.781	-0.5266
182.166	0.0208
182.551	0.1635
182.936	0.4207
183.321	-0.1613
183.706	-0.2847
184.091	-0.242
184.476	-1.4987
184.86	-0
185.245	-0
185.63	-0
186.015	0.5999
186.399	0.4023
186.784	0.5467
187.169	-0.0563
187.553	0.1156
187.938	-0
188.322	-0.1398
188.707	-0.0923
189.091	-0.0383
189.475	-0.0344
189.86	0.0034
190.244	0.0061
190.629	0.0246
191.013	0.0236
191.397	0.0244
191.781	0.0195
192.165	0.0018
192.55	-0.0031
192.934	0.0043
193.318	0.0083
193.702	0.0049
194.086	0.0007
194.47	0.0015
194.854	-0.0001
195.238	-0.0045
195.622	-0.0042
196.006	-0.0033
196.389	0.0009
196.773	0.0008
197.157	0.0022
197.541	0.0001
197.924	-0.0024
198.308	0.001
198.692	0.0059
199.075	0.0093
199.459	0.0077
199.843	0.0068
200.226	0.005
200.61	0.0008
200.993	-0.0027
201.376	-0.0029
201.76	-0
202.143	0.0035
202.527	0.0051
202.91	0.002
203.293	0.0025
203.676	0.0019
204.059	0.0044
204.443	0.0023
204.826	0.001
205.209	0.0019
205.592	0.0017
205.975	0.008
206.358	0.0083
206.741	0.0083
207.124	0.0046
207.507	0.0045
207.89	0.005
208.273	0.0054
208.655	0.0051
209.038	0.007
209.421	0.0071
209.804	0.0058
210.186	0.007
210.569	0.0053
210.951	0.0075
211.334	0.0042
211.717	0.0037
212.099	0.0025
212.482	0.0031
212.864	0.0041
213.246	0.003
213.629	0.0027
214.011	0.0013
214.393	0.0036
214.776	0.0039
215.158	0.0047
215.54	0.0026
215.922	0.0044
216.305	0.0051
216.687	0.0052
217.069	0.0037
217.451	0.0032
217.833	0.0033
218.215	0.003
218.597	0.002
218.979	0.0021
219.361	-0.0008
219.742	0.0014
220.124	0.0027
220.506	0.006
220.888	0.005
221.27	0.004
221.651	0.0044
222.033	0.0037
222.415	0.0048
222.796	0.0034
223.178	0.0031
223.559	0.0016
223.941	0.0016
224.322	0.0044
224.704	0.0069
225.085	0.0087
225.466	0.0062
225.848	0.0051
226.229	0.0035
226.61	0.0032
226.992	0.0016
227.373	0.002
227.754	0.0031
228.135	0.0045
228.516	0.005
228.897	0.0057
229.278	0.0046
229.659	0.0044
230.04	0.004
230.421	0.0051
230.802	0.0048
231.183	0.0044
231.564	0.0038
231.944	0.0037
232.325	0.0029
232.706	0.0027
233.087	0.0024
233.467	0.0026
233.848	0.0043
234.229	0.0043
234.609	0.0043
234.99	0.004
235.37	0.0037
235.751	0.0056
236.131	0.0031
236.511	0.0017
236.892	0
237.272	0.001
237.652	0.0025
238.033	0.0014
238.413	0.0008
238.793	0.0012
239.173	0.002
239.553	0.0027
239.933	0.0021
240.313	0.0019
240.694	0.0011
241.074	0.0013
241.453	0.002
241.833	0.0028
242.213	0.0029
242.593	0.0022
242.973	0.0024
243.353	0.0016
243.732	0.0017
244.112	0.0007
244.492	0.0016
244.872	0.001
245.251	0.0027
245.631	0.0017
246.01	0.0022
246.39	0.0015
246.769	0.0023
247.149	0.0031
247.528	0.0024
247.908	0.0026
248.287	0.0017
248.666	0.0023
249.045	0.0011
249.425	0.0021
249.804	0.002
250.183	0.0011
250.562	0.0002
250.941	0.0007
251.32	0.0011
251.699	0.0002
252.078	-0.0001
252.457	0.0004
252.836	0.0022
253.215	0.0018
253.594	0.0019
253.973	0.0002
254.352	-0.001
254.731	-0.002
255.109	-0.0015
255.488	-0.0015
255.867	0.0013
256.245	0.0016
256.624	0.0038
257.002	0.0035
257.381	0.0039
257.759	0.0032
258.138	0.001
258.516	-0.0001
258.895	-0.0002
259.273	0.0013
259.651	0.0032
260.03	0.0027
260.408	0.003
260.786	0.0023
261.164	0.0026
261.542	0.0015
261.921	0.0005
262.299	0.0007
262.677	0.0013
263.055	0.0002
263.433	0.0002
263.811	0.0005
264.188	0.0026
264.566	0.0022
264.944	0.0006
265.322	-0.0007
265.7	-0.0012
266.077	-0.0001
266.455	0.0019
266.833	0.0047
267.21	0.0041
267.588	0.0024
267.966	0.0006
268.343	0.0011
268.721	0.001
269.098	0.0002
269.475	0.0008
269.853	0.0016
270.23	0.0021
270.607	0.0004
270.985	-0.0008
271.362	-0.0013
271.739	-0.001
272.116	-0.0002
272.494	0.0005
272.871	0.0005
273.248	-0.0006
273.625	-0.0011
274.002	0.0002
274.379	0.0012
274.756	0.0008
275.132	-0.0002
275.509	0.0002
275.886	0.0015
276.263	0.0029
276.64	0.0021
277.016	0.0019
277.393	0.0015
277.77	0.0005
278.146	0.0012
278.523	-0.0001
278.899	-0.0004
279.276	-0.0013
279.652	0.0001
280.029	0.0012
280.405	0.0011
280.782	-0.0011
281.158	-0.0002
281.534	-0.0009
281.91	0.0007
282.287	-0.0005
282.663	0.0009
283.039	0.0005
283.415	0.0016
283.791	0.0019
284.167	0.0019
284.543	0.0016
284.919	-0.0002
285.295	-0.0011
285.671	-0.0008
286.047	-0.0002
286.423	0.0009
286.799	0.0012
287.174	0.0029
287.55	0.003
287.926	0.0017
288.301	0.0007
288.677	0.0013
289.053	0.0004
289.428	-0.0012
289.804	-0.0012
290.179	0
290.555	0.0023
290.93	0.002
291.305	0.0018
291.681	0.001
292.056	0.0015
292.431	0.0031
292.806	0.0026
293.182	0.0025
293.557	0.0014
293.932	0.0013
294.307	0.0011
294.682	-0.0002
295.057	-0.0008
295.432	-0.0019
295.807	-0.0007
296.182	-0.0011
296.557	-0.0002
296.932	0.0009
297.306	0.0024
297.681	0.001
298.056	-0
298.43	-0.0002
298.805	0.0011
299.18	0.0019
299.554	0.0024
299.929	0.0027
300.303	0.0029
300.678	0.0036
301.052	0.004
301.427	0.003
301.801	0.0032
302.175	0.0012
302.55	0.0017
302.924	0.0002
303.298	0.0006
303.672	-0.0001
304.046	0.0006
304.421	0.0004
304.795	0.0003
305.169	-0.0004
305.543	0.0016
305.917	0.0019
306.291	0.0026
306.664	0.0016
307.038	-0.0004
307.412	-0.0005
307.786	0.0001
308.16	0.0016
308.533	0.0012
308.907	0.0001
309.281	0.0006
309.654	0.001
310.028	0.0018
310.401	0.0013
310.775	0.0006
311.148	-0.0003
311.522	-0.0014
311.895	-0.0018
312.268	-0.0017
312.642	-0.0003
313.015	0.0004
313.388	0.001
313.761	0.001
314.135	0.0015
314.508	0.0008
314.881	0.0011
315.254	0.0008
315.627	0.0013
316	0.0019
316.373	0.0018
316.746	0.0022
317.118	0.001
317.491	0.0001
317.864	-0.0006
318.237	-0.0002
318.61	-0.0003
318.982	-0.0016
319.355	-0.0008
319.727	-0.0001
320.1	0.0006
320.473	-0
320.845	0.0002
321.218	0.0001
321.59	-0.0003
321.962	-0.0007
322.335	0.0011
322.707	0.0002
323.079	0.0013
323.452	0.001
323.824	0.0016
324.196	0.0014
324.568	0.0016
324.94	0.002
325.312	0.0027
325.684	0.002
326.056	0.0016
326.428	0.0003
326.8	-0.0003
327.172	0.0006
327.544	0.0008
327.915	0.0007
328.287	0.0011
328.659	0.0003
329.031	0.0004
329.402	-0.0015
329.774	-0.0007
330.145	-0.0012
330.517	-0.0002
330.888	-0.0015
331.26	-0.0003
331.631	-0.0006
332.003	0.0012
332.374	0.0006
332.745	0.0007
333.117	-0.0016
333.488	-0.0019
333.859	-0.0013
334.23	-0.0006
334.601	0.0012
334.972	0.0007
335.343	0.0014
335.714	-0
336.085	-0.0005
336.456	-0
336.827	0.0015
337.198	0.0021
337.569	0.0008
337.94	-0.0007
338.31	-0.0001
338.681	0.0002
339.052	-0.0002
339.422	-0.002
339.793	-0.0028
340.164	-0.0029
340.534	-0.0027
340.905	-0.0021
341.275	-0.0017
341.645	-0.0013
342.016	-0.0003
342.386	0.0005
342.756	0.0004
343.127	0.0002
343.497	-0.0007
343.867	-0.0016
344.237	-0.0016
344.607	-0.0008
344.977	0.0011
345.347	0.0005
345.717	0.0014
346.087	0.0007
346.457	0.0009
346.827	-0.0015
347.197	-0.0012
347.567	-0.0004
347.936	0.0007
348.306	0.0001
348.676	-0.0006
349.046	-0.0024
349.415	-0.0023
349.785	-0.0029
350.154	-0.0029
350.524	-0.0008
350.893	0.0014
351.263	0.0032
351.632	0.0022
352.001	0.0001
352.371	-0.0008
352.74	-0.0019
353.109	0.0002
353.478	0.0017
353.847	0.0032
354.217	0.0025
354.586	0.0005
354.955	-0.0002
355.324	-0.0015
355.693	-0.001
356.062	-0.0006
356.43	0.0005
356.799	-0.0006
357.168	-0.0023
357.537	-0.0035
357.906	-0.0015
358.274	0.0004
358.643	-0.0002
359.011	-0.0004
359.38	-0.0003
359.749	0.0026
360.117	0.0024
360.486	0.0002
360.854	-0.001
361.222	-0.0013
361.591	0.0004
361.959	-0.0008
362.327	-0.0012
362.695	-0.0016
363.064	-0.0015
363.432	-0.0016
363.8	-0.0017
364.168	-0.0029
364.536	-0.0009
364.904	-0.0011
365.272	0.0003
365.64	-0.0008
366.008	-0.0018
366.376	-0.0032
366.743	-0.004
367.111	-0.0011
367.479	0.0013
367.847	0.0019
368.214	0.0004
368.582	-0.001
368.949	-0.0028
369.317	-0.0009
369.684	-0.0007
370.052	0.001
370.419	-0.001
370.787	0.0005
371.154	-0.0012
371.521	-0.0012
371.889	-0.0039
372.256	-0.0004
372.623	-0.0014
372.99	-0.0004
373.357	-0.003
373.724	-0.0014
374.091	-0.0018
374.458	-0.0023
374.825	-0.0018
375.192	-0.0009
375.559	-0.0004
375.926	-0.0011
376.293	-0.0015
376.659	-0.001
377.026	-0.0017
377.393	-0.0021
377.759	-0.0008
378.126	-0.0004
378.492	0.0002
378.859	-0.0021
379.225	-0.0024
379.592	-0.0017
379.958	0.0006
380.325	-0.0002
380.691	-0.001
381.057	-0.0034
381.423	-0.0011
381.79	-0.0024
382.156	-0.0004
382.522	-0.0019
382.888	0.0001
383.254	-0.0004
383.62	-0.0003
383.986	-0.0027
384.352	-0.0028
384.718	-0.003
385.084	-0.002
385.449	-0.0019
385.815	-0.0017
386.181	0
386.547	-0.0003
386.912	0.0002
387.278	-0.0036
387.643	-0.004
388.009	-0.0051
388.374	-0.0036
388.74	-0.0033
389.105	-0.0023
389.471	0.0002
389.836	-0.0008
390.201	-0.0001
390.566	0.0007
390.932	0.003
391.297	0.0029
391.662	0.0013
392.027	0.0003
392.392	-0.0005
392.757	-0.002
393.122	-0.0025
393.487	-0.0018
393.852	-0.0018
394.217	-0.0014
394.582	-0.0047
394.946	-0.0033
395.311	-0.003
395.676	-0.0009
396.04	-0.0024
396.405	-0.003
396.77	-0.0033
397.134	-0.0024
397.499	-0.0018
397.863	-0.0003
398.227	0.0005
398.592	0.0017
398.956	0.0016
399.32	0.0008
399.685	-0.0026
400.049	-0.004
400.413	-0.0047
400.777	-0.002
401.141	-0.0012
401.505	-0.0007
401.869	-0.0022
402.233	-0.0017
402.597	-0.0025
402.961	-0.0014
403.325	-0.0034
403.689	-0.0018
404.053	-0.0004
404.416	0.0001
404.78	-0.0003
405.144	-0.0019
405.507	-0.0032
405.871	-0.0029
406.234	-0.0031
406.598	-0.0008
406.961	-0.0002
407.325	-0.0007
407.688	-0.0008
408.051	-0.0013
408.415	-0.0008
408.778	-0.0004
409.141	-0.0019
409.504	-0.0022
409.867	-0.0019
410.23	-0.0011
410.593	-0.0009
410.956	-0.0018
411.319	-0.0007
411.682	-0.0018
412.045	-0.0017
412.408	-0.0008
412.771	0.0014
413.134	0.0023
413.496	0.0005
413.859	-0.0019
414.222	-0.0021
414.584	-0.0015
414.947	-0.0001
415.309	-0.0032
415.672	-0.0025
416.034	-0.0011
416.396	-0.0006
416.759	-0.0001
417.121	-0.0003
417.483	0.0028
417.846	0.0011
418.208	0.0022
418.57	0.0005
418.932	-0.0006
419.294	-0.0027
419.656	-0.0008
420.018	0.0011
420.38	0.0011
420.742	0.0001
421.104	-0.0009
421.466	-0.0009
421.827	0.0022
422.189	0.0025
422.551	0.0038
422.912	0.0005
423.274	0.0006
423.636	-0.0018
423.997	-0.0039
424.359	-0.0036
424.72	-0.0032
425.081	-0.0013
425.443	-0.0004
425.804	0.0005
426.165	-0.0013
426.527	-0.0031
426.888	-0.0038
427.249	-0.0019
427.61	-0.0017
427.971	-0.0018
428.332	-0.0027
428.693	-0.0002
429.054	-0.0016
429.415	-0.001
429.776	-0.0033
430.137	-0.0034
430.498	-0.0049
430.858	-0.005
431.219	-0.0035
431.58	-0.0007
431.94	0.0005
432.301	0.0014
432.661	0.0008
433.022	-0.0008
433.382	-0.0022
433.743	-0.0024
434.103	-0.0004
434.463	0.002
434.824	0.0005
435.184	-0.0018
435.544	-0.0016
435.904	0.0011
436.264	0.0016
436.624	0.0011
436.985	0.0006
437.345	0.0025
437.704	0.0026
438.064	0.0031
438.424	0.002
438.784	-0.0005
439.144	-0.0029
439.504	-0.0059
439.863	-0.0051
440.223	-0.0035
440.583	-0.0041
440.942	-0.0039
441.302	-0.0023
441.661	0.0032
442.021	0.0014
442.38	0.0007
442.739	-0.0043
443.099	-0.001
443.458	-0.002
443.817	0.0012
444.176	-0.0011
444.536	-0.0035
444.895	-0.0039
445.254	-0.0018
445.613	-0.0002
445.972	-0.0017
446.331	-0.0041
446.69	-0.0053
447.049	-0.0032
447.407	-0.0025
447.766	0.0008
448.125	0.0031
448.484	0.0035
448.842	0.0032
449.201	-0.0015
449.559	-0.001
449.918	-0.0025
450.276	-0.0025
450.635	-0.0043
450.993	-0.0076
451.352	-0.0055
451.71	-0.0021
452.068	0.0007
452.426	0.002
452.785	-0.0014
453.143	-0.0004
453.501	-0.0008
453.859	0.0014
454.217	0.0009
454.575	-0.0019
454.933	-0.0033
455.291	-0.0027
455.649	-0.0029
456.006	-0.0018
456.364	-0.0019
456.722	-0.0001
457.079	0.0011
457.437	-0.0001
457.795	0.0001
458.152	-0.0005
458.51	-0.0005
458.867	-0
459.225	-0.0014
459.582	0.0004
459.939	-0.0006
460.297	-0.0008
460.654	-0.0021
461.011	-0.0016
461.368	0.0008
461.725	0.0013
462.082	0.0004
462.44	0.001
462.797	0.0014
463.153	0.0023
463.51	0.0015
463.867	0.0014
464.224	-0.0014
464.581	-0.0036
464.938	-0.0048
465.294	-0.0038
465.651	-0.0025
466.008	-0.0026
466.364	-0.0022
466.721	-0.0022
467.077	-0.0012
467.434	-0.0006
467.79	-0.0001
468.146	0.0005
468.503	0.0027
468.859	0.0027
469.215	0.0018
469.571	-0
469.927	0.0007
470.284	-0.0002
470.64	-0.0009
470.996	-0.0011
471.352	0
471.707	-0.001
472.063	-0.0012
472.419	-0.0023
472.775	0
473.131	-0.0005
473.486	0.0008
473.842	0.0009
474.198	-0.0013
474.553	-0.001
474.909	-0.0029
475.264	-0.0034
475.62	-0.0036
475.975	-0.0023
476.331	-0.0011
476.686	-0.0035
477.041	-0.0045
477.396	-0.0029
477.752	-0.002
478.107	-0.0023
478.462	-0.0032
478.817	-0.0021
479.172	-0.0005
479.527	0.0008
479.882	0.0002
480.237	-0.0019
480.591	-0.002
480.946	-0.0022
481.301	0.0002
481.656	-0.0022
482.01	-0.001
482.365	-0.0022
482.72	-0.0001
483.074	-0.0017
483.429	-0.0033
483.783	-0.0042
484.137	-0.0046
484.492	-0.0054
484.846	-0.0047
485.2	-0.0039
485.555	0.0003
485.909	0.0009
486.263	0.0013
486.617	-0.0004
486.971	-0.0023
487.325	-0.001
487.679	-0.0018
488.033	-0.0017
488.387	-0.0035
488.741	-0.0022
489.094	-0.0001
489.448	0.001
489.802	0.0022
490.156	-0.0003
490.509	-0.0008
490.863	-0.0028
491.216	-0.0014
491.57	-0.0037
491.923	-0.0043
492.277	-0.0053
492.63	-0.004
492.983	-0.002
493.337	-0.001
493.69	-0
494.043	-0.0004
494.396	-0.0006
494.749	-0.0024
495.102	-0.0029
495.455	-0.0047
495.808	-0.0038
496.161	-0.006
496.514	-0.0044
496.867	-0.0028
497.22	-0.0017
497.572	-0.0035
497.925	-0.0041
498.278	-0.0047
498.63	-0.0053
498.983	-0.0045
499.335	-0.0023
499.688	0.0005
500.04	0.0009
500.393	-0.0005
500.745	-0.0021
501.097	-0.0033
501.449	-0.0034
501.802	-0.0014
502.154	-0.0021
502.506	-0.0026
502.858	-0.0057
503.21	-0.0061
503.562	-0.0028
503.914	0.0024
504.266	0.0037
504.618	0.0025
504.969	-0.0003
505.321	-0.0012
505.673	-0.0046
506.025	-0.0032
506.376	-0.002
506.728	-0.0001
507.079	-0.0019
507.431	-0.0044
507.782	-0.0047
508.134	-0.0046
508.485	-0.0029
508.836	-0.0015
509.188	0
509.539	-0.0004
509.89	-0.0023
510.241	-0.0035
510.592	-0.0035
510.943	-0.0032
511.294	-0.0019
511.645	-0.0016
511.996	-0.0009
512.347	-0.0052
512.698	-0.0063
513.049	-0.007
513.399	-0.0051
513.75	-0.0048
514.101	-0.004
514.451	-0.0044
514.802	-0.0028
515.152	-0.0018
515.503	-0.0023
515.853	-0.0029
516.203	-0.0027
516.554	-0.0006
516.904	-0.0014
517.254	-0.0019
517.604	-0.0035
517.955	-0.0025
518.305	-0.0017
518.655	-0.0006
519.005	-0.0023
519.355	-0.0048
519.705	-0.0079
520.055	-0.0068
520.404	-0.0065
520.754	-0.0029
521.104	-0.0037
521.454	-0.002
521.803	-0.0031
522.153	-0.0031
522.502	-0.0049
522.852	-0.0044
523.201	-0.0036
523.551	-0.0036
523.9	-0.0015
524.249	0.0005
524.599	-0.0014
524.948	-0.0046
525.297	-0.0062
525.646	-0.0019
525.995	-0.001
526.344	-0.0013
526.694	-0.0031
527.042	-0.0043
527.391	-0.0067
527.74	-0.0073
528.089	-0.0072
528.438	-0.0058
528.787	-0.0051
529.135	-0.0041
529.484	-0.0026
529.833	-0.0048
530.181	-0.0037
530.53	-0.0047
530.878	-0.0029
531.227	-0.0069
531.575	-0.0047
531.923	-0.0065
532.271	-0.0051
532.62	-0.0058
532.968	-0.0035
533.316	-0.0036
533.664	-0.0053
534.012	-0.0076
534.36	-0.0062
534.708	-0.0068
535.056	-0.0047
535.404	-0.0018
535.752	0.0014
536.1	-0.0008
536.447	-0.0041
536.795	-0.0054
537.143	-0.0027
537.49	-0.0017
537.838	-0.0025
538.185	-0.0037
538.533	-0.0045
538.88	-0.0035
539.228	-0.002
539.575	-0.0008
539.922	-0.0029
540.269	-0.0022
540.617	-0.0018
540.964	0.0016
541.311	0.0008
541.658	0.001
542.005	-0.0015
542.352	-0.0024
542.699	-0.0048
543.045	-0.0047
543.392	-0.0029
543.739	-0.002
544.086	-0.0032
544.432	-0.0034
544.779	-0.0017
545.126	-0.0005
545.472	0.0006
545.819	0.0027
546.165	0.0038
546.512	-0.0014
546.858	-0.0044
547.204	-0.0077
547.55	-0.007
547.897	-0.0058
548.243	-0.0059
548.589	-0.0022
548.935	-0.0038
549.281	-0.0047
549.627	-0.0083
549.973	-0.0082
550.319	-0.0055
550.665	-0.0029
551.01	-0.0038
551.356	-0.0037
551.702	-0.0075
552.048	-0.0072
552.393	-0.0063
552.739	-0.0055
553.084	-0.0059
553.43	-0.0071
553.775	-0.0028
554.12	-0.0015
554.466	-0.0005
554.811	-0.0036
555.156	-0.0034
555.502	-0.0031
555.847	-0.0001
556.192	-0.001
556.537	-0.001
556.882	-0.0015
557.227	-0.0015
557.572	-0.0022
557.917	-0.002
558.261	-0.0013
558.606	0.0008
558.951	-0.0031
559.295	-0.0036
559.64	-0.0065
559.985	-0.0072
560.329	-0.0073
560.674	-0.0058
561.018	-0.003
561.363	-0.0085
561.707	-0.0113
562.051	-0.0121
562.395	-0.0057
562.74	-0.0035
563.084	-0.0031
563.428	-0.0015
563.772	0.0006
564.116	0.0016
564.46	0.0007
564.804	-0.0002
565.148	-0.0036
565.492	-0.0032
565.835	-0.0017
566.179	0.0017
566.523	-0.0024
566.866	-0.0077
567.21	-0.0114
567.554	-0.0121
567.897	-0.0062
568.24	-0.0063
568.584	-0.0073
568.927	-0.0097
569.271	-0.009
569.614	-0.0086
569.957	-0.0079
570.3	-0.0079
570.643	-0.0057
570.986	-0.0078
571.329	-0.006
571.672	-0.0018
572.015	-0.0002
572.358	0.0003
572.701	-0.0029
573.044	-0.0037
573.387	-0.0022
573.729	-0.0013
574.072	-0.001
574.414	-0.0041
574.757	-0.0041
575.099	-0.0069
575.442	-0.0067
575.784	-0.0072
576.127	-0.0055
576.469	-0.0051
576.811	-0.0056
577.153	-0.0045
577.496	-0.0044
577.838	-0.0041
578.18	-0.0063
578.522	-0.0069
578.864	-0.0092
579.206	-0.0065
579.548	-0.0055
579.889	-0.0051
580.231	-0.0031
580.573	-0.0014
580.915	-0.0025
581.256	-0.0077
581.598	-0.0103
581.939	-0.0122
582.281	-0.0073
582.622	-0.0071
582.964	-0.004
583.305	-0.0047
583.646	-0.0063
583.988	-0.001
584.329	-0.0014
584.67	-0.0022
585.011	-0.0066
585.352	-0.0087
585.693	-0.0073
586.034	-0.0104
586.375	-0.0113
586.716	-0.0112
587.057	-0.0068
587.398	-0.0044
587.738	-0.0012
588.079	-0.0024
588.42	-0.0035
588.76	-0.0076
589.101	-0.0068
589.441	-0.0061
589.782	-0.006
590.122	-0.0056
590.463	-0.0063
590.803	-0.006
591.143	-0.0054
591.483	-0.0068
591.823	-0.0054
592.164	-0.0084
592.504	-0.0059
592.844	-0.0076
593.184	-0.0038
593.523	-0.0039
593.863	-0.0065
594.203	-0.01
594.543	-0.0073
594.883	-0.0048
595.222	-0.0019
595.562	-0.003
595.901	-0.0032
596.241	-0.0049
596.58	-0.0056
596.92	-0.0064
597.259	-0.0071
597.599	-0.0079
597.938	-0.0058
598.277	-0.0076
598.616	-0.0102
598.955	-0.0096
599.295	-0.0067
599.634	-0.0047
599.973	-0.0071
600.312	-0.0045
600.65	-0.0057
600.989	-0.0045
601.328	-0.0041
601.667	-0.0019
602.005	-0.0069
602.344	-0.0111
602.683	-0.0092
603.021	-0.0058
603.36	-0.0044
603.698	-0.0074
604.037	-0.0068
604.375	-0.0051
604.713	-0.005
605.052	-0.004
605.39	-0.0039
605.728	-0.0042
606.066	-0.0013
606.404	-0.0024
606.742	-0.0021
607.08	-0.0052
607.418	-0.0075
607.756	-0.0073
608.094	-0.0057
608.431	-0.0065
608.769	-0.0049
609.107	-0.0064
609.444	-0.0043
609.782	-0.0057
610.12	-0.0046
610.457	-0.004
610.794	-0.0049
611.132	-0.0055
611.469	-0.008
611.806	-0.0087
612.144	-0.0112
612.481	-0.007
612.818	-0.0045
613.155	-0.004
613.492	-0.0064
613.829	-0.0072
614.166	-0.0086
614.503	-0.007
614.84	-0.0083
615.176	-0.0056
615.513	-0.0054
615.85	-0.004
616.187	-0.0023
616.523	-0.0036
616.86	-0.0064
617.196	-0.008
617.533	-0.0044
617.869	-0.0041
618.205	-0.0061
618.542	-0.0093
618.878	-0.01
619.214	-0.0055
619.55	-0.0076
619.886	-0.0047
620.222	-0.0074
620.558	-0.0036
620.894	-0.0066
621.23	-0.0085
621.566	-0.0082
621.902	-0.0053
622.238	-0.0034
622.573	-0.0014
622.909	-0.0048
623.244	-0.0057
623.58	-0.0101
623.916	-0.0097
624.251	-0.0107
624.586	-0.0114
624.922	-0.0089
625.257	-0.01
625.592	-0.007
625.927	-0.0079
626.263	-0.0046
626.598	-0.008
626.933	-0.0091
627.268	-0.0055
627.603	-0.003
627.938	-0.0046
628.272	-0.0091
628.607	-0.0109
628.942	-0.0061
629.277	-0.0067
629.611	-0.0071
629.946	-0.0088
630.281	-0.0062
630.615	-0.0061
630.949	-0.0072
631.284	-0.0068
631.618	-0.0023
631.953	-0.0007
632.287	-0.003
632.621	-0.0084
632.955	-0.0111
633.289	-0.0117
633.623	-0.0107
633.957	-0.0017
634.291	-0.0019
634.625	0.0002
634.959	-0.0089
635.293	-0.0099
635.627	-0.0093
635.96	-0.0064
636.294	-0.0053
636.627	-0.0057
636.961	-0.0043
637.294	-0.0028
637.628	-0.0053
637.961	-0.0089
638.295	-0.0103
638.628	-0.0064
638.961	-0.0097
639.294	-0.0104
639.628	-0.0121
639.961	-0.0101
640.294	-0.0132
640.627	-0.0152
640.96	-0.0136
641.293	-0.0077
641.625	-0.0061
641.958	-0.0055
642.291	-0.0102
642.624	-0.0072
642.956	-0.0076
643.289	-0.0034
643.621	-0.0078
643.954	-0.0098
644.286	-0.009
644.619	-0.0051
644.951	-0.0057
645.283	-0.0062
645.616	-0.012
645.948	-0.0103
646.28	-0.0094
646.612	-0.0072
646.944	-0.006
647.276	-0.0124
647.608	-0.0167
647.94	-0.017
648.272	-0.0132
648.603	-0.0087
648.935	-0.0125
649.267	-0.0071
649.598	-0.0093
649.93	-0.003
650.261	-0.0088
650.593	-0.0089
650.924	-0.0112
651.256	-0.011
651.587	-0.0073
651.918	-0.0053
652.25	-0.005
652.581	-0.0045
652.912	-0.0078
653.243	-0.007
653.574	-0.0079
653.905	-0.0055
654.236	-0.0037
654.567	-0.0084
654.897	-0.0093
655.228	-0.0149
655.559	-0.0084
655.89	-0.007
656.22	-0.0014
656.551	-0.0058
656.881	-0.0065
657.212	-0.0061
657.542	-0.0065
657.872	-0.0051
658.203	-0.0088
658.533	0.0127
658.863	0.008
659.193	-0.0028
659.523	-0.0096
659.853	-0.0212
660.183	-0.0089
660.513	-0.009
660.843	-0.0051
661.173	-0.0104
661.503	-0.0055
661.833	-0.0094
662.162	-0.0078
662.492	-0.0108
662.822	-0.0125
663.151	-0.0088
663.481	-0.0078
663.81	-0.0051
664.139	-0.0102
664.469	-0.0062
664.798	-0.0017
665.127	-0.0017
665.456	-0.0018
665.785	-0.0038
666.114	-0.0031
666.443	-0.0022
666.772	-0.0068
667.101	-0.0087
667.43	-0.0176
667.759	-0.0104
668.088	-0.0109
668.416	-0.0085
668.745	-0.0135
669.074	-0.0121
669.402	-0.0089
669.731	-0.007
670.059	-0.0084
670.388	-0.0083
670.716	-0.0092
671.044	-0.0044
671.372	-0.004
671.701	-0.0006
672.029	-0
672.357	-0.0042
672.685	-0.004
673.013	-0.0081
673.341	-0.0045
673.669	-0.0124
673.996	-0.0102
674.324	-0.005
674.652	0.001
674.98	-0.0023
675.307	-0.0083
675.635	-0.0093
675.962	-0.0095
676.29	-0.0077
676.617	-0.0105
676.945	-0.0092
677.272	-0.0133
677.599	-0.012
677.926	-0.0118
678.253	-0.0113
678.581	-0.0117
678.908	-0.0118
679.235	-0.0084
679.561	-0.0074
679.888	-0.0055
680.215	-0.0063
680.542	-0.0123
680.869	-0.0118
681.195	-0.0129
681.522	-0.0073
681.849	-0.0072
682.175	-0.0081
682.502	-0.0078
682.828	-0.0073
683.154	-0.0054
683.481	-0.0054
683.807	-0.0083
684.133	-0.0115
684.459	-0.0177
684.785	-0.0138
685.111	-0.012
685.437	-0.012
685.763	-0.0169
686.089	-0.0156
686.415	-0.0078
686.741	-0.0022
687.067	-0.0018
687.392	-0.0049
687.718	-0.0098
688.043	-0.0083
688.369	-0.0051
688.694	-0.0003
689.02	-0.0027
689.345	-0.0099
689.67	-0.0172
689.996	-0.0163
690.321	-0.0082
690.646	-0.0028
690.971	-0.0036
691.296	-0.0056
691.621	-0.0049
691.946	-0.0072
692.271	-0.0104
692.596	-0.0103
692.921	-0.0096
693.245	-0.0058
693.57	-0.0081
693.895	-0.005
694.219	-0.0062
694.544	-0.0056
694.868	-0.0059
695.193	-0.0108
695.517	-0.0117
695.841	-0.0165
696.166	-0.0123
696.49	-0.014
696.814	-0.0107
697.138	-0.0108
697.462	-0.0083
697.786	-0.0084
698.11	-0.0039
698.434	-0.0066
698.758	-0.0094
699.081	-0.0147
699.405	-0.0113
699.729	-0.0075
700.052	-0.0076
700.376	-0.013
700.7	-0.0153
701.023	-0.0148
701.346	-0.0116
701.67	-0.0108
701.993	-0.0089
702.316	-0.0083
702.639	-0.0037
702.963	-0.0101
703.286	-0.0142
703.609	-0.011
703.932	-0.0054
704.255	0.0016
704.578	-0.0028
704.9	-0.0004
705.223	-0.0024
705.546	-0.002
705.868	-0.0054
706.191	-0.0049
706.514	-0.0089
706.836	-0.0059
707.159	-0.0059
707.481	-0.0049
707.803	-0.0074
708.126	-0.0069
708.448	-0.005
708.77	-0.0043
709.092	-0.0037
709.414	-0.0026
709.736	-0.0032
710.058	-0.0062
710.38	-0.0042
710.702	-0.0071
711.024	-0.0044
711.345	-0.008
711.667	-0.0075
711.989	-0.0118
712.31	-0.0113
712.632	-0.0115
712.953	-0.0103
713.275	-0.0118
713.596	-0.0108
713.917	-0.0092
714.239	-0.0079
714.56	-0.0111
714.881	-0.0127
715.202	-0.0118
715.523	-0.0062
715.844	-0.0011
716.165	-0.0048
716.486	-0.0065
716.807	-0.0137
717.128	-0.0122
717.448	-0.0107
717.769	-0.0122
718.09	-0.013
718.41	-0.016
718.731	-0.0143
719.051	-0.0134
719.372	-0.0124
719.692	-0.0098
720.012	-0.0083
720.332	-0.0093
720.653	-0.0083
720.973	-0.0088
721.293	-0.0089
721.613	-0.0119
721.933	-0.0119
722.253	-0.0098
722.573	-0.0076
722.892	-0.0135
723.212	-0.0125
723.532	-0.0128
723.851	-0.0135
724.171	-0.0156
724.491	-0.0173
724.81	-0.013
725.129	-0.0122
725.449	-0.0127
725.768	-0.0101
726.087	-0.0092
726.407	-0.0091
726.726	-0.0106
727.045	-0.0141
727.364	-0.0133
727.683	-0.0114
728.002	-0.0119
728.321	-0.0094
728.64	-0.0123
728.958	-0.0107
729.277	-0.0134
729.596	-0.0087
729.914	-0.0107
730.233	-0.0097
730.551	-0.0119
730.87	-0.0099
731.188	-0.0074
731.507	-0.0082
731.825	-0.007
732.143	-0.005
732.461	-0.0049
732.779	-0.0054
733.097	-0.0104
733.415	-0.0091
733.733	-0.009
734.051	-0.0102
734.369	-0.0099
734.687	-0.0122
735.005	-0.0097
735.322	-0.0081
735.64	-0.0039
735.957	-0.0036
736.275	-0.0059
736.592	-0.007
736.91	-0.0098
737.227	-0.0099
737.544	-0.009
737.862	-0.0039
738.179	-0.0037
738.496	-0.0032
738.813	-0.0067
739.13	-0.0087
739.447	-0.0136
739.764	-0.0115
740.081	-0.0124
740.398	-0.0085
740.714	-0.0123
741.031	-0.0116
741.348	-0.0104
741.664	-0.0046
741.981	0.0022
742.297	0.002
742.614	0.0002
742.93	-0.0029
743.246	-0.0088
743.563	-0.0194
743.879	-0.0255
744.195	-0.0251
744.511	-0.0183
744.827	-0.0173
745.143	-0.0151
745.459	-0.0118
745.775	-0.0132
746.091	-0.0156
746.406	-0.0188
746.722	-0.013
747.038	-0.0068
747.353	-0.0031
747.669	-0.0108
747.984	-0.0135
748.3	-0.0155
748.615	-0.0119
748.93	-0.0082
749.246	-0.0072
749.561	-0.0071
749.876	-0.0158
750.191	-0.0191
750.506	-0.0204
750.821	-0.0145
751.136	-0.0135
751.451	-0.0111
751.766	-0.0086
752.08	-0.0106
752.395	-0.0095
752.71	-0.0113
753.024	-0.0063
753.339	-0.003
753.653	-0.0064
753.968	-0.0087
754.282	-0.0093
754.596	-0.0052
754.911	-0.004
755.225	-0.008
755.539	-0.0112
755.853	-0.0164
756.167	-0.0196
756.481	-0.0158
756.795	-0.0169
757.109	-0.014
757.423	-0.0146
757.736	-0.0076
758.05	-0.0064
758.364	-0.0109
758.677	-0.009
758.991	-0.0081
759.304	-0.0083
759.618	-0.0097
759.931	-0.013
760.244	-0.0103
760.558	-0.0103
760.871	-0.0084
761.184	-0.0099
761.497	-0.0124
761.81	-0.0145
762.123	-0.0111
762.436	-0.0068
762.749	-0.0042
763.062	-0.0072
763.374	-0.0092
763.687	-0.0123
764	-0.0109
764.312	-0.0081
764.625	-0.0066
764.937	-0.0068
765.25	-0.012
765.562	-0.0122
765.874	-0.0128
766.186	-0.0131
766.499	-0.0091
766.811	-0.007
767.123	-0.0036
767.435	-0.0071
767.747	-0.006
768.059	-0.0082
768.37	-0.0062
768.682	-0.0113
768.994	-0.0133
769.306	-0.0147
769.617	-0.014
769.929	-0.01
770.24	-0.0084
770.552	-0.0022
770.863	0.0009
771.174	-0.0057
771.486	-0.0084
771.797	-0.014
772.108	-0.0087
772.419	-0.008
772.73	-0.0021
773.041	-0.0077
773.352	-0.0094
773.663	-0.0115
773.974	-0.01
774.285	-0.0157
774.595	-0.0192
774.906	-0.0154
775.217	-0.0088
775.527	-0.0066
775.838	-0.0096
776.148	-0.0126
776.458	-0.0122
776.769	-0.0088
777.079	-0.0041
777.389	-0.0053
777.699	-0.0055
778.009	-0.008
778.319	-0.0069
778.629	-0.0089
778.939	-0.0108
779.249	-0.0093
779.559	-0.01
779.869	-0.0071
780.178	-0.011
780.488	-0.0143
780.798	-0.0172
781.107	-0.0166
781.417	-0.0109
781.726	-0.0055
782.035	-0.0044
782.345	-0.0076
782.654	-0.0073
782.963	-0.0085
783.272	-0.0069
783.581	-0.0048
783.89	-0.006
784.199	-0.0061
784.508	-0.0089
784.817	-0.0056
785.126	-0.0071
785.434	-0.0085
785.743	-0.0137
786.052	-0.0126
786.36	-0.0115
786.669	-0.0089
786.977	-0.0086
787.285	-0.0068
787.594	-0.0071
787.902	-0.0099
788.21	-0.0091
788.518	-0.0101
788.826	-0.004
789.135	-0.008
789.442	-0.0026
789.75	-0.0085
790.058	-0.0089
790.366	-0.0176
790.674	-0.0173
790.981	-0.0181
791.289	-0.0167
791.597	-0.0138
791.904	-0.0123
792.212	-0.0081
792.519	-0.0099
792.826	-0.0088
793.134	-0.0043
793.441	-0.0028
793.748	-0.0036
794.055	-0.0068
794.362	-0.0079
794.669	-0.0103
794.976	-0.0113
795.283	-0.0137
795.59	-0.008
795.897	-0.0113
796.203	-0.0072
796.51	-0.0046
796.817	-0.0031
797.123	-0.0069
797.43	-0.0111
797.736	-0.0108
798.042	-0.0134
798.349	-0.0153
798.655	-0.0147
798.961	-0.0096
799.267	-0.0064
799.573	-0.0105
799.879	-0.0095
800.185	-0.0087
800.491	-0.0049
800.797	-0.0077
801.103	-0.0124
801.408	-0.0131
801.714	-0.0144
802.02	-0.0138
802.325	-0.0118
802.631	-0.0082
802.936	-0.0143
803.242	-0.022
803.547	-0.0178
803.852	-0.0045
804.157	0.0034
804.462	0.0003
804.768	-0.0035
805.073	-0.0071
805.378	-0.0109
805.682	-0.0099
805.987	-0.0106
806.292	-0.0087
806.597	-0.0132
806.902	-0.0146
807.206	-0.0148
807.511	-0.018
807.815	-0.0107
808.12	-0.0077
808.424	-0.0039
808.728	-0.0127
809.033	-0.0129
809.337	-0.0142
809.641	-0.0133
809.945	-0.0222
810.249	-0.0214
810.553	-0.013
810.857	-0.0028
811.161	-0.002
811.465	-0.0087
811.768	-0.0153
812.072	-0.0148
812.376	-0.0145
812.679	-0.0054
812.983	-0.005
813.286	-0.0086
813.59	-0.0147
813.893	-0.0194
814.196	-0.013
814.499	-0.0231
814.803	-0.0236
815.106	-0.0208
815.409	-0.0071
815.712	0.0034
816.015	-0.0054
816.318	-0.0099
816.62	-0.0096
816.923	-0.0077
817.226	-0.0085
817.528	-0.0137
817.831	-0.0126
818.133	-0.0135
818.436	-0.02
818.738	-0.0205
819.041	-0.0096
819.343	-0.0004
819.645	-0.0047
819.947	-0.0038
820.249	-0.002
820.551	0.0034
820.853	-0.0042
821.155	-0.0137
821.457	-0.0167
821.759	-0.011
822.061	-0.0076
822.362	-0.0037
822.664	-0.014
822.966	-0.0167
823.267	-0.0164
823.569	-0.0124
823.87	-0.0073
824.171	-0.0134
824.473	-0.0136
824.774	-0.0205
825.075	-0.0158
825.376	-0.0233
825.677	-0.024
825.978	-0.0241
826.279	-0.0108
826.58	-0.0105
826.881	-0.0113
827.181	-0.0145
827.482	-0.0077
827.783	-0.0062
828.083	-0.0074
828.384	-0.0165
828.684	-0.0131
828.985	-0.0204
829.285	-0.0214
829.585	-0.0251
829.885	-0.0157
830.185	-0.011
830.486	-0.0072
830.786	-0.0066
831.086	-0.0112
831.385	-0.012
831.685	-0.0182
831.985	-0.0106
832.285	-0.0111
832.585	-0.0101
832.884	-0.0161
833.184	-0.0182
833.483	-0.015
833.783	-0.011
834.082	-0.0117
834.381	-0.0065
834.681	0.0045
834.98	-0.0033
835.279	-0.0172
835.578	-0.0273
835.877	-0.0131
836.176	-0.0133
836.475	-0.0056
836.774	-0.0219
837.072	-0.0205
837.371	-0.0327
837.67	-0.0227
837.968	-0.0223
838.267	-0.0179
838.565	-0.0263
838.864	-0.0183
839.162	-0.0244
839.46	-0.0143
839.759	-0.02
840.057	-0.0219
840.355	-0.0272
840.653	-0.0259
840.951	-0.0247
841.249	-0.0227
841.547	-0.0263
841.845	-0.0199
842.142	-0.0164
842.44	-0.0103
842.738	-0.0222
843.035	-0.0232
843.333	-0.0246
843.63	-0.01
843.928	-0.0126
844.225	-0.0097
844.522	-0.0044
844.82	-0.0039
845.117	-0.0012
845.414	-0.0164
845.711	-0.0219
846.008	-0.0313
846.305	-0.014
846.602	-0.0098
846.898	-0.0025
847.195	-0.0076
847.492	-0.0099
847.788	-0.0113
848.085	-0.0176
848.382	-0.0159
848.678	-0.018
848.974	-0.0096
849.271	-0.0087
849.567	-0.0214
849.863	-0.0327
850.159	-0.0195
850.455	-0.0125
850.751	-0.0079
851.047	-0.0213
851.343	-0.0086
851.639	-0.013
851.935	-0.0118
852.23	-0.0062
852.526	0.0012
852.822	0.0121
853.117	0.0094
853.413	0.008
853.708	-0.0193
854.003	-0.0216
854.299	-0.0192
854.594	-0.0086
854.889	-0.0258
855.184	-0.0314
855.479	-0.0233
855.774	-0.012
856.069	-0.0087
856.364	-0.0124
856.659	-0.0185
856.954	-0.0131
857.248	-0.0079
857.543	-0.0076
857.837	-0.0136
858.132	-0.0079
858.426	-0.0057
858.721	0.002
859.015	-0.0003
859.309	0.0084
859.604	-0.0091
859.898	-0.0053
860.192	-0.012
860.486	0.0161
860.78	0.0201
861.074	0.0097
861.367	-0.0257
861.661	-0.0309
861.955	-0.0265
862.248	-0.0009
862.542	-0.0029
862.836	-0.0021
863.129	-0.0098
863.422	-0.0241
863.716	-0.0216
864.009	-0.029
864.302	-0.0214
864.595	-0.024
864.889	-0.0101
865.182	-0.0217
865.475	-0.0245
865.767	-0.0277
866.06	-0.0175
866.353	-0.0005
866.646	-0.0257
866.938	-0.0235
867.231	-0.0139
867.524	0.0247
867.816	0.0149
868.109	-0.0098
868.401	-0.0403
868.693	-0.0292
868.985	-0.0143
869.278	-0.0044
869.57	0.0046
869.862	-0.025
870.154	-0.0248
870.446	-0.0332
870.738	-0.0347
871.029	-0.0386
871.321	-0.0497
871.613	-0.0238
871.904	-0.0256
872.196	-0.0107
872.487	-0.0142
872.779	0.0012
873.07	0.0003
873.362	-0.002
873.653	-0.0128
873.944	-0.0084
874.235	-0.0131
874.526	-0.0005
874.817	0.0088
875.108	0.006
875.399	-0.009
875.69	-0.0321
875.981	-0.0343
876.271	-0.0129
876.562	-0.0097
876.853	0.0084
877.143	-0.0326
877.434	-0.0527
877.724	-0.0714
878.014	-0.0413
878.305	-0.0173
878.595	-0.0157
878.885	-0.0048
879.175	-0.0072
879.465	-0.0009
879.755	-0.0154
880.045	-0.0178
880.335	-0.0223
880.624	-0.0283
880.914	-0.0283
