Data from DIblank1_080617_1a_Absorbance_15-05-29-417.txt Node
Date: Sun Aug 06 15:05:29 MDT 2017
User: Tank Lab
Spectrometer: FLMS01220
Trigger mode: 0
Integration Time (sec): 1.000000E-1
Scans to average: 10
Electric dark correction enabled: true
Nonlinearity correction enabled: false
Boxcar width: 1
XAxis mode: Wavelengths
Number of Pixels in Spectrum: 2048
>>>>>Begin Spectral Data<<<<<
179.47	0.1856
179.856	0.1856
180.241	0.151
180.626	0.3923
181.011	0.3623
181.396	1.0579
181.781	-0.5416
182.166	0.0651
182.551	0.0574
182.936	0.8666
183.321	-0
183.706	-0.5055
184.091	0.3228
184.476	-0
184.86	0.1745
185.245	-0.2152
185.63	0.005
186.015	0.3009
186.399	-0.1033
186.784	-0.0954
187.169	0.9573
187.553	0.3148
187.938	-0
188.322	-0.0988
188.707	-0.0442
189.091	-0.0155
189.475	0.0007
189.86	0.0127
190.244	0.0043
190.629	-0.0094
191.013	-0.0207
191.397	-0.0247
191.781	0.0034
192.165	0.0068
192.55	0.0038
192.934	0.0081
193.318	-0.0029
193.702	0.0058
194.086	-0.0017
194.47	0.0082
194.854	0.0001
195.238	-0.0023
195.622	-0.0084
196.006	-0.003
196.389	-0.0051
196.773	0.0027
197.157	0.0024
197.541	0.0092
197.924	0.0064
198.308	0.008
198.692	0.0074
199.075	0.0073
199.459	0.0033
199.843	0.0043
200.226	0.0008
200.61	-0.0022
200.993	-0.0049
201.376	-0.0027
201.76	-0.0006
202.143	0
202.527	0.0041
202.91	0.0017
203.293	0.0019
203.676	-0.0007
204.059	0.0058
204.443	0.0035
204.826	0.0005
205.209	-0.0002
205.592	0.0017
205.975	0.006
206.358	0.0019
206.741	0.0001
207.124	-0.0042
207.507	0.0003
207.89	0.0002
208.273	0.0021
208.655	-0.0003
209.038	0.0013
209.421	0.0035
209.804	0.0031
210.186	0.0036
210.569	0.001
210.951	0.0018
211.334	0.0004
211.717	0.001
212.099	0.0009
212.482	0.0008
212.864	0.0016
213.246	0.0027
213.629	0.0012
214.011	0.0025
214.393	0.0013
214.776	0.0046
215.158	0.002
215.54	0.0005
215.922	0.001
216.305	0.0021
216.687	0.0048
217.069	0.0039
217.451	0.0018
217.833	-0.0004
218.215	0.0009
218.597	0.0009
218.979	0.001
219.361	-0.0018
219.742	0.001
220.124	0.0018
220.506	0.0036
220.888	0.0024
221.27	0.0021
221.651	0.0016
222.033	0.0006
222.415	0.0008
222.796	-0
223.178	-0.0003
223.559	-0.0016
223.941	-0.0014
224.322	0.0004
224.704	0.0009
225.085	0.0009
225.466	-0.0015
225.848	-0.0018
226.229	-0.0021
226.61	-0.0016
226.992	-0.0002
227.373	0
227.754	0.0016
228.135	0.0017
228.516	0.0019
228.897	0.0018
229.278	0.0004
229.659	0.0012
230.04	0.0008
230.421	0.0003
230.802	-0.0007
231.183	-0.0005
231.564	0.0011
231.944	0.0019
232.325	0.0009
232.706	-0.0006
233.087	-0.0026
233.467	-0.0036
233.848	-0.0026
234.229	-0.0018
234.609	0.0007
234.99	0.0016
235.37	0.0007
235.751	0.0006
236.131	-0.0005
236.511	-0.0007
236.892	-0.0014
237.272	-0.0014
237.652	-0.0002
238.033	-0.0013
238.413	-0.0012
238.793	-0.0014
239.173	-0.0006
239.553	-0.0006
239.933	-0.0005
240.313	-0.0012
240.694	-0.0013
241.074	-0.0009
241.453	0.0007
241.833	-0.0001
242.213	-0.0008
242.593	-0.0016
242.973	-0.0007
243.353	-0.0004
243.732	-0.0003
244.112	-0.0015
244.492	-0.0024
244.872	-0.0038
245.251	-0.0022
245.631	-0.0019
246.01	-0.0009
246.39	-0.0008
246.769	-0.0003
247.149	0.0004
247.528	-0.0008
247.908	-0.0004
248.287	-0.0012
248.666	-0.0006
249.045	0.0001
249.425	0.0012
249.804	0.002
250.183	0.0014
250.562	0.0004
250.941	0.0004
251.32	-0.0006
251.699	0.0003
252.078	-0.0001
252.457	-0.0001
252.836	-0.0016
253.215	-0.0013
253.594	-0.0015
253.973	-0.0012
254.352	-0.0021
254.731	-0.0017
255.109	-0.0011
255.488	0.0004
255.867	0.0004
256.245	-0.0003
256.624	-0.0006
257.002	-0.0009
257.381	-0.0001
257.759	-0.0005
258.138	0.0004
258.516	0.0001
258.895	0.0002
259.273	0.0003
259.651	0.0009
260.03	0.0004
260.408	0.0005
260.786	-0.0001
261.164	-0.0002
261.542	-0.0015
261.921	-0.0015
262.299	-0.0011
262.677	0.0006
263.055	0.0004
263.433	-0.0001
263.811	-0.0014
264.188	-0.0001
264.566	-0.0004
264.944	-0.0009
265.322	-0.0027
265.7	-0.0016
266.077	-0.0007
266.455	0.0008
266.833	0.0013
267.21	0.001
267.588	-0.0005
267.966	-0.0023
268.343	-0.0027
268.721	-0.0023
269.098	-0.0011
269.475	0.0001
269.853	0.0003
270.23	0.0002
270.607	-0.0016
270.985	-0.0015
271.362	-0.0032
271.739	-0.0024
272.116	-0.0024
272.494	-0.001
272.871	0.0001
273.248	-0.0016
273.625	-0.0019
274.002	-0.0016
274.379	0.0004
274.756	0.0005
275.132	-0
275.509	0
275.886	-0.0002
276.263	0.0003
276.64	0.0005
277.016	0.0015
277.393	0.0018
277.77	0.0005
278.146	-0.0006
278.523	-0.0032
278.899	-0.0036
279.276	-0.0033
279.652	-0.0013
280.029	0.0004
280.405	0.0003
280.782	-0.0006
281.158	-0.0014
281.534	-0.0017
281.91	-0.0011
282.287	-0.0016
282.663	-0.0004
283.039	-0.0008
283.415	0.0003
283.791	-0
284.167	-0.0006
284.543	-0.0014
284.919	-0.0027
285.295	-0.0022
285.671	-0.0023
286.047	-0.002
286.423	-0.0023
286.799	-0.0019
287.174	-0.0002
287.55	-0.0005
287.926	-0.0005
288.301	-0.001
288.677	0.0001
289.053	-0.0003
289.428	-0.0016
289.804	-0.0007
290.179	-0.0004
290.555	0.0002
290.93	-0.0006
291.305	-0.0005
291.681	-0.001
292.056	-0.0011
292.431	-0.0002
292.806	-0.0001
293.182	-0.0003
293.557	-0.0008
293.932	-0.0001
294.307	0.0015
294.682	0.0006
295.057	-0.0005
295.432	-0.002
295.807	-0.001
296.182	0.0001
296.557	0.0003
296.932	0
297.306	0.0003
297.681	0.001
298.056	0.0002
298.43	-0.0005
298.805	-0.0019
299.18	-0.0009
299.554	-0.0005
299.929	0.0002
300.303	0.0002
300.678	-0.0002
301.052	0.0002
301.427	0.0001
301.801	0.0006
302.175	-0.001
302.55	-0.0015
302.924	-0.0009
303.298	-0.001
303.672	-0.0001
304.046	-0.0006
304.421	-0.0001
304.795	-0.0013
305.169	-0.0021
305.543	-0.0014
305.917	0.0001
306.291	0.0014
306.664	0.0015
307.038	-0.0013
307.412	-0.0019
307.786	-0.0016
308.16	0.0006
308.533	0.0008
308.907	0
309.281	0.0009
309.654	0.0005
310.028	0.0004
310.401	-0.0018
310.775	-0.0015
311.148	-0.0029
311.522	-0.0029
311.895	-0.0029
312.268	-0.0005
312.642	-0.0004
313.015	0.0009
313.388	0.0002
313.761	0.0011
314.135	-0.0004
314.508	-0.0003
314.881	-0.0011
315.254	-0.0023
315.627	-0.0028
316	-0.0017
316.373	-0.0009
316.746	0.001
317.118	0.0005
317.491	0.0007
317.864	-0.0008
318.237	-0.0009
318.61	-0.0006
318.982	-0.0009
319.355	0.0001
319.727	-0.0001
320.1	-0.0006
320.473	-0.0025
320.845	-0.0023
321.218	-0.0011
321.59	0.0009
321.962	-0.0003
322.335	0.0009
322.707	-0.0004
323.079	0.0015
323.452	-0.0001
323.824	0.0002
324.196	-0
324.568	0.0007
324.94	0.0014
325.312	0.0014
325.684	0.0016
326.056	-0.0005
326.428	-0.0009
326.8	-0.0011
327.172	0.0006
327.544	-0.0006
327.915	-0.0004
328.287	0.0004
328.659	0.0015
329.031	0.0006
329.402	-0.0011
329.774	-0.0021
330.145	-0.0022
330.517	-0.0009
330.888	-0.0011
331.26	-0
331.631	-0.0011
332.003	0.0007
332.374	-0.0002
332.745	0.0004
333.117	-0.0027
333.488	-0.0026
333.859	-0.0018
334.23	-0.0005
334.601	0.0011
334.972	-0.0001
335.343	0.0007
335.714	-0.0013
336.085	-0.0016
336.456	-0.0021
336.827	-0.0011
337.198	-0.0003
337.569	-0.0008
337.94	-0.0012
338.31	-0.0015
338.681	-0.0005
339.052	-0.0017
339.422	-0.0021
339.793	-0.0026
340.164	-0.0027
340.534	-0.0024
340.905	-0.0032
341.275	-0.0027
341.645	-0.0016
342.016	-0.0006
342.386	-0
342.756	-0.0009
343.127	-0.0005
343.497	-0.0016
343.867	-0.0015
344.237	-0.0028
344.607	-0.0016
344.977	-0.0014
345.347	0
345.717	0
346.087	-0.0009
346.457	-0.0011
346.827	-0.0032
347.197	-0.0038
347.567	-0.004
347.936	-0.0027
348.306	-0.0005
348.676	-0.0003
349.046	0.0004
349.415	0.0001
349.785	0.0001
350.154	-0.002
350.524	-0.0027
350.893	-0.0021
351.263	0.0007
351.632	0.0026
352.001	0.0002
352.371	0.0002
352.74	-0.0013
353.109	-0.0001
353.478	0.0013
353.847	0.001
354.217	0.0009
354.586	-0.0007
354.955	-0.0006
355.324	-0.0012
355.693	-0.002
356.062	-0.0005
356.43	-0.0014
356.799	-0.0006
357.168	-0.003
357.537	-0.0013
357.906	-0.0026
358.274	-0.0011
358.643	-0.0012
359.011	-0.0006
359.38	0.0004
359.749	0.0007
360.117	0.0004
360.486	-0.0002
360.854	-0.0003
361.222	-0.0024
361.591	-0.0034
361.959	-0.0037
362.327	-0.0019
362.695	-0.0014
363.064	-0.0013
363.432	-0.002
363.8	-0.0012
364.168	-0.0008
364.536	0.0005
364.904	0
365.272	-0.0015
365.64	-0.0026
366.008	-0.0044
366.376	-0.0034
366.743	-0.0031
367.111	-0.0006
367.479	0.0015
367.847	0.0023
368.214	0.0019
368.582	-0.0011
368.949	-0.0018
369.317	-0.0014
369.684	-0.0012
370.052	-0.0004
370.419	-0.0022
370.787	0.0013
371.154	-0.0007
371.521	0.0007
371.889	-0.0006
372.256	0.0018
372.623	-0.0002
372.99	-0.0034
373.357	-0.005
373.724	-0.0045
374.091	-0.0031
374.458	-0.0018
374.825	0.0003
375.192	0.0006
375.559	0.0006
375.926	0.0003
376.293	0.0002
376.659	-0.0009
377.026	-0.0029
377.393	-0.001
377.759	-0.0006
378.126	0.0008
378.492	-0.002
378.859	-0.0022
379.225	-0.0026
379.592	-0.001
379.958	0.0005
380.325	-0.0003
380.691	-0.0012
381.057	-0.0023
381.423	-0.0024
381.79	-0.0029
382.156	-0.0038
382.522	-0.0035
382.888	-0.0028
383.254	-0.001
383.62	0.0002
383.986	0
384.352	0.0014
384.718	0.0002
385.084	-0.0002
385.449	-0.0026
385.815	-0.0028
386.181	-0.0022
386.547	-0.0028
386.912	-0.0033
387.278	-0.0037
387.643	-0.0025
388.009	-0.0022
388.374	-0.0024
388.74	-0.0018
389.105	-0.0006
389.471	0.0002
389.836	-0.0014
390.201	-0.001
390.566	-0.0003
390.932	0.0014
391.297	0.0018
391.662	-0.0001
392.027	-0.0011
392.392	-0.0021
392.757	-0.0009
393.122	-0.0012
393.487	-0.0004
393.852	-0.0021
394.217	-0.0003
394.582	-0.0012
394.946	0.0008
395.311	-0.0002
395.676	0
396.04	-0.0013
396.405	-0.0014
396.77	-0.0009
397.134	-0.0001
397.499	-0.0006
397.863	-0.0017
398.227	-0.002
398.592	-0.0019
398.956	-0.0026
399.32	-0.0029
399.685	-0.0016
400.049	0.0001
400.413	0.0014
400.777	0.001
401.141	-0.0012
401.505	-0.0023
401.869	-0.0055
402.233	-0.0031
402.597	-0.0022
402.961	0.0006
403.325	-0.0012
403.689	-0.0018
404.053	-0.0015
404.416	-0.0029
404.78	-0.0025
405.144	-0.0033
405.507	-0.0012
405.871	-0.0035
406.234	-0.0038
406.598	-0.0035
406.961	0.0011
407.325	0.0001
407.688	-0.001
408.051	-0.0017
408.415	0.0002
408.778	0.0018
409.141	-0.0015
409.504	-0.0021
409.867	-0.0041
410.23	-0.0021
410.593	-0.0033
410.956	-0.002
411.319	-0.0022
411.682	-0.0005
412.045	0.0006
412.408	0.0014
412.771	0.0016
413.134	0.0002
413.496	-0.0003
413.859	-0.0015
414.222	-0
414.584	-0.0003
414.947	0.0014
415.309	-0.0002
415.672	0.001
416.034	-0.0001
416.396	-0.0006
416.759	-0.0004
417.121	-0.0015
417.483	0.0014
417.846	-0.0001
418.208	0.0023
418.57	-0.0003
418.932	-0.0003
419.294	-0.0026
419.656	-0.0005
420.018	0.0006
420.38	0.0005
420.742	0
421.104	-0.0038
421.466	-0.0023
421.827	-0.0005
422.189	0.0029
422.551	0.0023
422.912	-0.0013
423.274	-0.002
423.636	-0.0037
423.997	-0.0049
424.359	-0.004
424.72	-0.0009
425.081	0.0005
425.443	-0.0004
425.804	-0.0013
426.165	-0.0013
426.527	-0.0016
426.888	-0.0022
427.249	-0.0011
427.61	-0.0002
427.971	0.0003
428.332	-0.0001
428.693	0.0016
429.054	-0.0002
429.415	-0.0008
429.776	-0.0044
430.137	-0.0032
430.498	-0.0019
430.858	-0.0009
431.219	0.0011
431.58	0.0023
431.94	0.0043
432.301	0.0015
432.661	0.0007
433.022	-0.0002
433.382	-0.0016
433.743	-0.004
434.103	-0.0044
434.463	-0.0002
434.824	0.0003
435.184	-0.0008
435.544	-0.0022
435.904	-0.0002
436.264	0.0007
436.624	0.0009
436.985	-0.0004
437.345	0.0001
437.704	-0.0014
438.064	-0.0008
438.424	0.0011
438.784	0.0012
439.144	0.0008
439.504	-0.002
439.863	-0.0023
440.223	-0.0017
440.583	-0.0038
440.942	-0.0044
441.302	-0.0034
441.661	-0.0002
442.021	0.0008
442.38	0.0003
442.739	0.0001
443.099	0.0027
443.458	0.0004
443.817	0.0006
444.176	-0.0002
444.536	-0.0013
444.895	-0.0016
445.254	-0.0028
445.613	-0.0001
445.972	0.0006
446.331	-0.0003
446.69	-0.0007
447.049	0.0006
447.407	0.0022
447.766	0.004
448.125	0.0028
448.484	0.0011
448.842	-0.0019
449.201	-0.003
449.559	-0.0048
449.918	-0.0035
450.276	-0.0038
450.635	0.0003
450.993	-0.0001
451.352	-0.0015
451.71	-0.0015
452.068	-0
452.426	0.0015
452.785	-0.002
453.143	-0.0024
453.501	-0.0026
453.859	-0.0015
454.217	-0.0028
454.575	-0.0031
454.933	-0.0034
455.291	-0.0025
455.649	-0.002
456.006	0.0008
456.364	-0.0014
456.722	-0.0009
457.079	-0.004
457.437	-0.0018
457.795	-0.0035
458.152	-0.0029
458.51	-0.0024
458.867	0.001
459.225	0.0018
459.582	0.0009
459.939	0.0006
460.297	0.0029
460.654	0.0012
461.011	0.0007
461.368	-0.0015
461.725	-0.0019
462.082	-0.0025
462.44	-0.0011
462.797	0.0012
463.153	-0.0004
463.51	-0.0013
463.867	-0.002
464.224	-0.0015
464.581	-0.0012
464.938	-0.0008
465.294	-0.0002
465.651	-0.0001
466.008	0.0001
466.364	-0.0002
466.721	-0.0027
467.077	-0.0021
467.434	-0.0011
467.79	-0.0002
468.146	-0.0023
468.503	-0.0048
468.859	-0.005
469.215	-0.0039
469.571	-0.0022
469.927	0.0001
470.284	0.0015
470.64	0.0017
470.996	0.0013
471.352	-0.0001
471.707	0.0004
472.063	0.0021
472.419	-0.0006
472.775	0.0003
473.131	-0.0026
473.486	0.0021
473.842	0.0033
474.198	0.0011
474.553	-0.0006
474.909	-0.0027
475.264	-0.0029
475.62	-0.0033
475.975	-0.0035
476.331	-0
476.686	-0.0018
477.041	-0.0039
477.396	-0.0056
477.752	-0.0042
478.107	-0.0028
478.462	-0.004
478.817	-0.0036
479.172	-0.0045
479.527	-0.0021
479.882	-0.0009
480.237	0.0007
480.591	0.0012
480.946	0.002
481.301	0.0026
481.656	0.0013
482.01	0.0007
482.365	-0.0006
482.72	0.0009
483.074	0.0008
483.429	-0.0012
483.783	-0.0012
484.137	-0.0033
484.492	-0.001
484.846	-0.0024
485.2	-0.003
485.555	-0.0011
485.909	-0.0005
486.263	0.0007
486.617	-0.0014
486.971	-0.0029
487.325	-0.0023
487.679	-0.0023
488.033	-0.0009
488.387	-0.0025
488.741	-0.0019
489.094	-0.0004
489.448	0.001
489.802	0.002
490.156	-0.0024
490.509	-0.0022
490.863	-0.0042
491.216	-0.0027
491.57	-0.0039
491.923	-0.0025
492.277	-0.0022
492.63	-0.0021
492.983	-0.0035
493.337	-0.0026
493.69	-0.003
494.043	-0.003
494.396	-0.0034
494.749	-0.0051
495.102	-0.0039
495.455	-0.0039
495.808	-0.0038
496.161	-0.0046
496.514	-0.0037
496.867	-0.0014
497.22	-0.0016
497.572	-0.0022
497.925	-0.003
498.278	-0.0017
498.63	-0.004
498.983	-0.0032
499.335	-0.0023
499.688	-0
500.04	0.0008
500.393	-0.0013
500.745	-0.0025
501.097	-0.0022
501.449	-0.0016
501.802	-0.0005
502.154	-0.0025
502.506	-0.0039
502.858	-0.0049
503.21	-0.0052
503.562	-0.0034
503.914	-0.0005
504.266	0.0016
504.618	0.001
504.969	-0.0008
505.321	-0.0025
505.673	-0.0048
506.025	-0.004
506.376	-0.0013
506.728	0.0024
507.079	0.0017
507.431	-0.0007
507.782	-0.002
508.134	-0.004
508.485	-0.0022
508.836	-0.0023
509.188	-0.0006
509.539	-0.0007
509.89	-0.001
510.241	-0.0001
510.592	0.0006
510.943	-0.0003
511.294	0.0002
511.645	-0.0024
511.996	-0.0013
512.347	-0.0041
512.698	-0.0019
513.049	-0.0038
513.399	-0.0026
513.75	-0.0041
514.101	-0.0042
514.451	-0.0054
514.802	-0.0048
515.152	-0.0019
515.503	-0.0011
515.853	-0.0003
516.203	-0.0019
516.554	-0.0024
516.904	-0.0042
517.254	-0.0029
517.604	-0.0013
517.955	0.0006
518.305	0.0007
518.655	0.0013
519.005	0.0002
519.355	-0.003
519.705	-0.0052
520.055	-0.0046
520.404	-0.0025
520.754	-0.001
521.104	-0.0033
521.454	-0.0025
521.803	-0.002
522.153	-0.0015
522.502	-0.0027
522.852	-0.0017
523.201	-0.0012
523.551	-0.0012
523.9	-0.0022
524.249	-0.001
524.599	-0.0019
524.948	-0.0041
525.297	-0.0037
525.646	-0.002
525.995	-0
526.344	-0.0011
526.694	-0.0008
527.042	-0.0023
527.391	-0.005
527.74	-0.005
528.089	-0.0065
528.438	-0.0035
528.787	-0.0018
529.135	-0.0012
529.484	-0.0016
529.833	-0.0043
530.181	-0.002
530.53	-0.0028
530.878	-0.0034
531.227	-0.0074
531.575	-0.0065
531.923	-0.0056
532.271	-0.0021
532.62	-0.0022
532.968	-0.0032
533.316	-0.003
533.664	-0.0034
534.012	-0.0035
534.36	-0.0033
534.708	-0.0049
535.056	-0.004
535.404	-0.0029
535.752	-0.0003
536.1	-0.0024
536.447	-0.0033
536.795	-0.0016
537.143	0.0004
537.49	0.0005
537.838	-0.0024
538.185	-0.0048
538.533	-0.0051
538.88	-0.005
539.228	-0.0014
539.575	0.001
539.922	0.0017
540.269	0.0013
540.617	-0.0004
540.964	-0.0008
541.311	-0.0022
541.658	-0.0007
542.005	0.0009
542.352	0.0021
542.699	-0.0013
543.045	-0.004
543.392	-0.0059
543.739	-0.0029
544.086	-0.0041
544.432	-0.0038
544.779	-0.0037
545.126	-0.003
545.472	0.0017
545.819	0.0014
546.165	0.004
546.512	-0.0001
546.858	-0.0025
547.204	-0.0078
547.55	-0.0065
547.897	-0.0028
548.243	0.0021
548.589	0.0019
548.935	-0.0006
549.281	-0.0027
549.627	-0.0048
549.973	-0.0059
550.319	-0.0059
550.665	-0.002
551.01	0.0002
551.356	0.0014
551.702	-0.0031
552.048	-0.0044
552.393	-0.0031
552.739	-0.0011
553.084	0.002
553.43	-0.0005
553.775	0.0032
554.12	0.0012
554.466	0.0051
554.811	-0.002
555.156	-0.0016
555.502	-0.0035
555.847	0.0022
556.192	0.0004
556.537	0.0008
556.882	-0.0031
557.227	-0.0015
557.572	-0.0031
557.917	-0.0026
558.261	-0.0034
558.606	-0.0021
558.951	-0
559.295	0.0004
559.64	-0.0006
559.985	-0.0054
560.329	-0.0077
560.674	-0.0056
561.018	-0.0022
561.363	-0.0018
561.707	-0.0043
562.051	-0.0032
562.395	-0.0026
562.74	0.0006
563.084	-0.002
563.428	-0.0005
563.772	-0.0025
564.116	0.0009
564.46	0.0032
564.804	0.0044
565.148	0.0026
565.492	-0.0001
565.835	0.0007
566.179	0.002
566.523	-0.0002
566.866	-0.0024
567.21	-0.0032
567.554	-0.002
567.897	-0.0002
568.24	-0.0016
568.584	-0.0047
568.927	-0.0053
569.271	-0.0029
569.614	-0.0007
569.957	0
570.3	-0.0006
570.643	0.0006
570.986	0.0007
571.329	-0.0016
571.672	-0.0009
572.015	-0.0009
572.358	-0.001
572.701	-0.002
573.044	-0.0029
573.387	-0.001
573.729	-0.0008
574.072	0
574.414	-0.001
574.757	-0.0006
575.099	-0.0031
575.442	-0.0042
575.784	-0.0046
576.127	-0.0012
576.469	-0.0004
576.811	-0.0009
577.153	-0.0012
577.496	-0.0006
577.838	-0.0025
578.18	-0.0047
578.522	-0.0059
578.864	-0.0057
579.206	-0.004
579.548	-0.0031
579.889	-0.0031
580.231	-0.0025
580.573	-0.0021
580.915	-0.0023
581.256	-0.0047
581.598	-0.0038
581.939	-0.0029
582.281	0.0003
582.622	-0.0022
582.964	-0.0014
583.305	-0.0012
583.646	-0.0019
583.988	-0.0016
584.329	-0.0024
584.67	-0.0018
585.011	-0.0043
585.352	-0.0041
585.693	-0.0028
586.034	-0.002
586.375	-0.0028
586.716	-0.0056
587.057	-0.0018
587.398	-0.0004
587.738	0.0016
588.079	-0.0006
588.42	-0.0018
588.76	-0.0038
589.101	-0.0039
589.441	-0.0024
589.782	-0.0025
590.122	-0.0027
590.463	-0.0049
590.803	-0.0042
591.143	-0.0036
591.483	-0.0032
591.823	-0.0035
592.164	-0.0064
592.504	-0.0074
592.844	-0.0074
593.184	-0.0034
593.523	-0.0032
593.863	-0.0036
594.203	-0.0053
594.543	-0.0029
594.883	-0.0032
595.222	-0.0011
595.562	-0.0017
595.901	0
596.241	-0.001
596.58	-0.0011
596.92	0.0005
597.259	-0.0002
597.599	0.0002
597.938	-0.0016
598.277	-0.0012
598.616	-0.001
598.955	-0.0014
599.295	-0.0003
599.634	-0.0026
599.973	-0.0012
600.312	0.0002
600.65	0.0012
600.989	-0.001
601.328	-0.0021
601.667	-0.002
602.005	-0.0047
602.344	-0.0058
602.683	-0.0043
603.021	-0.0016
603.36	0.0006
603.698	-0.0016
604.037	-0.0011
604.375	-0.0006
604.713	-0.0006
605.052	0.0003
605.39	-0.0029
605.728	-0.0008
606.066	-0.0004
606.404	0
606.742	-0.0016
607.08	0.001
607.418	-0.0006
607.756	-0.0012
608.094	-0.003
608.431	-0.0018
608.769	0.0009
609.107	-0.0012
609.444	-0.0026
609.782	-0.0054
610.12	-0.0051
610.457	-0.0052
610.794	-0.0039
611.132	-0.0041
611.469	-0.0048
611.806	-0.0077
612.144	-0.0093
612.481	-0.0057
612.818	-0.0019
613.155	-0.0001
613.492	-0.0002
613.829	-0.0013
614.166	-0.0021
614.503	-0.0043
614.84	-0.0047
615.176	-0.0037
615.513	-0.0008
615.85	0.0008
616.187	0
616.523	-0.0021
616.86	-0.0046
617.196	-0.005
617.533	-0.0019
617.869	-0.0009
618.205	-0.0008
618.542	-0.0014
618.878	-0.0018
619.214	0.0005
619.55	-0.0028
619.886	-0.0009
620.222	-0.0021
620.558	0.0002
620.894	-0.0026
621.23	-0.0033
621.566	-0.0043
621.902	-0.0035
622.238	-0.0038
622.573	-0.004
622.909	-0.0065
623.244	-0.0079
623.58	-0.0077
623.916	-0.0044
624.251	-0.0049
624.586	-0.0019
624.922	-0.0022
625.257	-0.0034
625.592	-0.0044
625.927	-0.0045
626.263	-0
626.598	-0.0016
626.933	-0.0016
627.268	-0.0001
627.603	-0.0012
627.938	-0.0025
628.272	-0.0038
628.607	-0.0017
628.942	-0.0002
629.277	-0.0053
629.611	-0.0086
629.946	-0.0105
630.281	-0.007
630.615	-0.0048
630.949	-0.0048
631.284	-0.0009
631.618	0.0018
631.953	0.0004
632.287	-0.0051
632.621	-0.0076
632.955	-0.0042
633.289	-0.0048
633.623	-0.0045
633.957	-0.0023
634.291	-0.004
634.625	-0.0039
634.959	-0.0052
635.293	-0.0023
635.627	-0.0014
635.96	-0.004
636.294	-0.0047
636.627	-0.0036
636.961	-0.0034
637.294	-0.0024
637.628	-0.003
637.961	-0.0041
638.295	-0.0024
638.628	-0.0011
638.961	-0.0025
639.294	-0.0042
639.628	-0.0065
639.961	-0.0069
640.294	-0.0086
640.627	-0.0085
640.96	-0.0055
641.293	-0.0043
641.625	-0.0074
641.958	-0.0049
642.291	-0.0051
642.624	-0.0006
642.956	0.0001
643.289	0.0015
643.621	-0.0007
643.954	-0.0039
644.286	-0.0031
644.619	-0.002
644.951	-0.0003
645.283	0.0015
645.616	-0.0002
645.948	-0.0021
646.28	-0.003
646.612	-0.0012
646.944	0
647.276	-0.0034
647.608	-0.0078
647.94	-0.0099
648.272	-0.0108
648.603	-0.0065
648.935	-0.0057
649.267	-0.002
649.598	-0.004
649.93	-0.0046
650.261	-0.0051
650.593	-0.0049
650.924	-0.003
651.256	-0.0021
651.587	-0.0019
651.918	-0.0022
652.25	-0.0037
652.581	-0.0048
652.912	-0.0057
653.243	-0.0082
653.574	-0.005
653.905	-0.0051
654.236	-0.003
654.567	-0.0068
654.897	-0.009
655.228	-0.0093
655.559	-0.0059
655.89	-0.0005
656.22	0.0015
656.551	0.0002
656.881	0.0006
657.212	0.0001
657.542	-0.0016
657.872	-0.0005
658.203	-0.0044
658.533	0.0035
658.863	-0.0016
659.193	-0.0035
659.523	-0.0045
659.853	-0.0048
660.183	-0.0003
660.513	-0.0051
660.843	-0.0027
661.173	0.0003
661.503	0.0033
661.833	-0.0021
662.162	-0.0023
662.492	-0.0018
662.822	-0.0032
663.151	-0.0041
663.481	-0.0023
663.81	-0.0002
664.139	0.001
664.469	0.0013
664.798	0.0052
665.127	0.0015
665.456	0.0013
665.785	-0.0065
666.114	-0.0053
666.443	-0.0079
666.772	-0.007
667.101	-0.0093
667.43	-0.0098
667.759	-0.0044
668.088	-0.0044
668.416	-0.0072
668.745	-0.0109
669.074	-0.0111
669.402	-0.0078
669.731	-0.0024
670.059	-0.0005
670.388	-0.0016
670.716	-0.0074
671.044	-0.0068
671.372	-0.0077
671.701	0.0007
672.029	0.0014
672.357	0.0036
672.685	0.0002
673.013	-0.0012
673.341	-0.0007
673.669	-0.0048
673.996	-0.0035
674.324	-0.0008
674.652	0.0025
674.98	0.0019
675.307	0.0001
675.635	0.0002
675.962	0.0003
676.29	0
676.617	-0.0032
676.945	-0.0013
677.272	-0.0061
677.599	-0.0022
677.926	-0.0042
678.253	0.0012
678.581	-0.0004
678.908	0.0003
679.235	0
679.561	-0.0007
679.888	-0.0012
680.215	-0.0023
680.542	-0.0079
680.869	-0.0068
681.195	-0.0071
681.522	-0.0002
681.849	-0.0021
682.175	-0.0024
682.502	-0.0059
682.828	-0.0046
683.154	-0.0017
683.481	0.0011
683.807	0
684.133	-0.0018
684.459	-0.0083
684.785	-0.0074
685.111	-0.0077
685.437	-0.0034
685.763	-0.0049
686.089	-0.0046
686.415	-0.0044
686.741	0.001
687.067	-0.0019
687.392	-0.0038
687.718	-0.009
688.043	-0.0054
688.369	-0.0028
688.694	0.0013
689.02	0.002
689.345	-0.0025
689.67	-0.0072
689.996	-0.0086
690.321	-0.0044
690.646	-0.0036
690.971	-0.0044
691.296	-0.0041
691.621	-0.0056
691.946	-0.0081
692.271	-0.013
692.596	-0.0123
692.921	-0.01
693.245	-0.0003
693.57	-0
693.895	0.0031
694.219	-0.0028
694.544	-0.001
694.868	-0.0049
695.193	-0.0041
695.517	-0.0051
695.841	-0.0054
696.166	-0.0038
696.49	-0.0032
696.814	-0.0014
697.138	-0.0006
697.462	0.0039
697.786	0.0047
698.11	0.0002
698.434	-0.0071
698.758	-0.0108
699.081	-0.012
699.405	-0.0055
699.729	-0.0032
700.052	-0.0021
700.376	-0.0054
700.7	-0.0063
701.023	-0.0069
701.346	-0.0054
701.67	-0.0055
701.993	-0.0019
702.316	-0.005
702.639	0.0004
702.963	-0.0052
703.286	-0.004
703.609	-0.0007
703.932	0.0033
704.255	0.0049
704.578	0.001
704.9	0.0023
705.223	0.0039
705.546	0.0008
705.868	-0.0016
706.191	0.0002
706.514	0.0007
706.836	0.0021
707.159	-0.0035
707.481	-0.0055
707.803	-0.0057
708.126	-0.0077
708.448	-0.003
708.77	-0
709.092	0.0042
709.414	0.0001
709.736	-0.002
710.058	-0.0037
710.38	-0.0008
710.702	-0.0069
711.024	-0.0062
711.345	-0.0084
711.667	-0.0037
711.989	-0.005
712.31	-0.0023
712.632	-0.0014
712.953	-0.0041
713.275	-0.0066
713.596	-0.0084
713.917	-0.0058
714.239	-0.0028
714.56	-0.0043
714.881	-0.0046
715.202	-0.0056
715.523	-0.0043
715.844	0.0006
716.165	-0.002
716.486	0.0033
716.807	-0.0013
717.128	-0.0032
717.448	-0.0048
717.769	-0.0044
718.09	-0.0049
718.41	-0.0056
718.731	-0.0093
719.051	-0.0072
719.372	-0.0099
719.692	-0.0058
720.012	-0.0003
720.332	-0.0026
720.653	-0.0012
720.973	-0.006
721.293	-0.0071
721.613	-0.0108
721.933	-0.0097
722.253	-0.004
722.573	-0.0021
722.892	-0.0061
723.212	-0.0108
723.532	-0.0099
723.851	-0.0135
724.171	-0.0095
724.491	-0.0106
724.81	-0.0042
725.129	-0.0069
725.449	-0.0034
725.768	-0.0022
726.087	0.0002
726.407	-0.0015
726.726	0.0016
727.045	-0.0014
727.364	-0.0025
727.683	-0.0032
728.002	-0.0003
728.321	-0.0037
728.64	-0.0073
728.958	-0.0084
729.277	-0.0068
729.596	-0.0083
729.914	-0.0129
730.233	-0.0081
730.551	-0.0063
730.87	-0.0012
731.188	-0.0065
731.507	-0.0057
731.825	-0.0066
732.143	-0.0029
732.461	-0.0033
732.779	-0.0038
733.097	-0.0047
733.415	-0.005
733.733	-0.0016
734.051	-0.0039
734.369	-0.0046
734.687	-0.0081
735.005	-0.0061
735.322	-0.0021
735.64	0.0045
735.957	0.0061
736.275	0.0037
736.592	-0.0025
736.91	-0.0074
737.227	-0.0052
737.544	-0.0005
737.862	0.0053
738.179	0.0031
738.496	-0.0004
738.813	-0.0062
739.13	-0.0057
739.447	-0.006
739.764	-0.0021
740.081	-0.0031
740.398	-0.0052
740.714	-0.0066
741.031	-0.004
741.348	-0.0013
741.664	0.0026
741.981	0.003
742.297	0.0031
742.614	0.0035
742.93	0.001
743.246	-0.0023
743.563	-0.0137
743.879	-0.0165
744.195	-0.0127
744.511	-0.0058
744.827	-0.0051
745.143	-0.0063
745.459	-0.0005
745.775	-0.0023
746.091	-0.0047
746.406	-0.0147
746.722	-0.0105
747.038	-0.005
747.353	-0.0016
747.669	-0.0109
747.984	-0.0146
748.3	-0.0102
748.615	-0.0052
748.93	-0.0029
749.246	-0.0053
749.561	-0.0058
749.876	-0.0109
750.191	-0.0125
750.506	-0.0078
750.821	-0.0047
751.136	-0.0021
751.451	-0.0041
751.766	-0.0017
752.08	-0.0057
752.395	-0.0034
752.71	-0.0045
753.024	-0.0013
753.339	-0.0006
753.653	-0.0072
753.968	-0.0076
754.282	-0.0111
754.596	-0.0071
754.911	-0.006
755.225	-0.0069
755.539	-0.0075
755.853	-0.0097
756.167	-0.0053
756.481	-0.003
756.795	-0.0065
757.109	-0.0068
757.423	-0.0039
757.736	-0.0013
758.05	-0.0037
758.364	-0.0049
758.677	-0.0001
758.991	0.0017
759.304	-0.0022
759.618	-0.0012
759.931	-0.0032
760.244	-0.0016
760.558	-0.0036
760.871	-0.007
761.184	-0.0082
761.497	-0.0122
761.81	-0.0108
762.123	-0.006
762.436	-0.0022
762.749	0.0029
763.062	0.0001
763.374	-0.004
763.687	-0.0101
764	-0.0092
764.312	-0.0021
764.625	0.0024
764.937	0.0022
765.25	-0.0051
765.562	-0.0039
765.874	-0.004
766.186	-0.0013
766.499	-0.0006
766.811	0
767.123	0.0012
767.435	-0.003
767.747	-0.0015
768.059	-0.0043
768.37	0.0009
768.682	-0.0057
768.994	-0.0075
769.306	-0.0128
769.617	-0.0076
769.929	-0.0064
770.24	-0.0054
770.552	-0.0067
770.863	-0.005
771.174	-0.01
771.486	-0.0098
771.797	-0.0091
772.108	-0.0056
772.419	-0.0007
772.73	-0.0045
773.041	-0.0054
773.352	-0.0122
773.663	-0.0081
773.974	-0.007
774.285	-0.0086
774.595	-0.01
774.906	-0.0078
775.217	-0.0023
775.527	-0.0017
775.838	-0.0028
776.148	-0.0034
776.458	0.0016
776.769	-0.0008
777.079	-0.0037
777.389	-0.0107
777.699	-0.0101
778.009	-0.0083
778.319	-0.0039
778.629	-0.0045
778.939	-0.0056
779.249	-0.0071
779.559	-0.0031
779.869	-0.0047
780.178	-0.0046
780.488	-0.0099
780.798	-0.0052
781.107	-0.0107
781.417	-0.0096
781.726	-0.0093
782.035	-0.0035
782.345	0.0018
782.654	0.0045
782.963	0.0026
783.272	0.0018
783.581	-0.0008
783.89	-0.0064
784.199	-0.0133
784.508	-0.012
784.817	-0.0088
785.126	-0.0054
785.434	-0.0083
785.743	-0.008
786.052	-0.0029
786.36	-0.0039
786.669	-0.0007
786.977	-0.0038
787.285	-0.0028
787.594	-0.0069
787.902	-0.009
788.21	-0.0109
788.518	-0.0029
788.826	0.0038
789.135	0.0051
789.442	0.0002
789.75	-0.0037
790.058	-0.0043
790.366	-0.009
790.674	-0.0092
790.981	-0.0062
791.289	-0.003
791.597	-0.0024
791.904	-0.0034
792.212	-0.0023
792.519	-0.0021
792.826	-0.0027
793.134	0.0021
793.441	-0.0005
793.748	-0.0005
794.055	-0.0021
794.362	-0.0011
794.669	-0.001
794.976	-0.0036
795.283	-0.0025
795.59	-0.0008
795.897	-0.0017
796.203	-0.0008
796.51	-0.0029
796.817	-0.006
797.123	-0.0095
797.43	-0.0077
797.736	-0.004
798.042	-0.0014
798.349	-0.0025
798.655	-0.0004
798.961	-0.0018
799.267	-0.0038
799.573	-0.0125
799.879	-0.008
800.185	-0.001
800.491	0.0011
800.797	-0.0057
801.103	-0.0073
801.408	-0.0049
801.714	-0.0042
802.02	-0.0085
802.325	-0.0046
802.631	-0.004
802.936	-0.0116
803.242	-0.0181
803.547	-0.0166
803.852	-0.0074
804.157	-0.0051
804.462	-0.0016
804.768	-0.0026
805.073	-0.0013
805.378	-0.0079
805.682	-0.0102
805.987	-0.0118
806.292	-0.0055
806.597	0.0004
806.902	0.002
807.206	0.0048
807.511	-0.002
807.815	-0.0024
808.12	-0.0036
808.424	-0.0026
808.728	-0.0028
809.033	-0.0032
809.337	-0.0015
809.641	-0.0008
809.945	-0.0048
810.249	-0.0069
810.553	-0.0019
810.857	0.0007
811.161	-0.0013
811.465	-0.0097
811.768	-0.0186
812.072	-0.012
812.376	-0.0113
812.679	-0.0002
812.983	0
813.286	-0.0023
813.59	-0.015
813.893	-0.0185
814.196	-0.015
814.499	-0.0149
814.803	-0.0128
815.106	-0.0058
815.409	0.001
815.712	-0.0034
816.015	-0.0086
816.318	-0.0073
816.62	-0.0012
816.923	-0.0048
817.226	-0.0082
817.528	-0.0104
817.831	-0.0104
818.133	-0.0115
818.436	-0.0152
818.738	-0.0157
819.041	-0.0068
819.343	0.0032
819.645	0.0062
819.947	0.0106
820.249	0.0109
820.551	0.0116
820.853	0.0051
821.155	-0.0101
821.457	-0.0144
821.759	-0.0088
822.061	-0.0022
822.362	0.0034
822.664	-0.0006
822.966	-0.0047
823.267	-0.0054
823.569	-0.007
823.87	0.0037
824.171	0.0012
824.473	-0.0008
824.774	-0.0094
825.075	-0.0035
825.376	-0.0055
825.677	-0.0046
825.978	-0.0053
826.279	-0.0047
826.58	-0.0049
826.881	-0.0156
827.181	-0.0126
827.482	-0.0093
827.783	-0.0034
828.083	-0.0051
828.384	-0.0083
828.684	-0.0122
828.985	-0.0226
829.285	-0.0291
829.585	-0.0225
829.885	-0.009
830.185	-0.0009
830.486	0.0022
830.786	-0.0003
831.086	-0.0077
831.385	-0.0146
831.685	-0.0139
831.985	-0.011
832.285	0.0006
832.585	-0.0081
832.884	-0.0017
833.184	-0.0174
833.483	-0.0121
833.783	-0.0121
834.082	-0.0108
834.381	-0.0063
834.681	-0.0095
834.98	-0.0039
835.279	-0.0031
835.578	-0.0134
835.877	-0.0095
836.176	-0.0085
836.475	0.004
836.774	-0.0126
837.072	-0.0183
837.371	-0.0229
837.67	-0.0103
837.968	-0.0166
838.267	-0.014
838.565	-0.0169
838.864	0.007
839.162	-0.0037
839.46	-0.0032
839.759	-0.019
840.057	-0.0122
840.355	-0.0073
840.653	-0.0023
840.951	-0.0044
841.249	0.0008
841.547	0.0014
841.845	0.0031
842.142	-0.0093
842.44	-0.0107
842.738	-0.0169
843.035	-0.0086
843.333	-0.0109
843.63	0.0046
843.928	0.0032
844.225	0.0077
844.522	0.0079
844.82	-0.0004
845.117	-0.0048
845.414	-0.0105
845.711	-0.0105
846.008	-0.0186
846.305	-0.0269
846.602	-0.0165
846.898	-0.0103
847.195	-0.0095
847.492	-0.0087
847.788	-0.0059
848.085	0.0017
848.382	-0.0085
848.678	-0.0123
848.974	-0.01
849.271	-0.0033
849.567	-0.0102
849.863	-0.0137
850.159	-0.0182
850.455	-0.0189
850.751	-0.0192
851.047	-0.0163
851.343	-0.009
851.639	-0.0176
851.935	-0.0258
852.23	-0.0229
852.526	-0.0172
852.822	-0.0066
853.117	-0.0047
853.413	-0.0072
853.708	-0.0104
854.003	-0.0083
854.299	0.0146
854.594	0.0043
854.889	-0.0069
855.184	-0.0089
855.479	-0.0033
855.774	-0.0023
856.069	-0.004
856.364	-0.0105
856.659	-0.0047
856.954	-0.0297
857.248	-0.0217
857.543	-0.0228
857.837	-0.0049
858.132	0.0033
858.426	0.009
858.721	0.0033
859.015	-0.0022
859.309	0.0021
859.604	-0.0097
859.898	0.0068
860.192	-0.0172
860.486	0.0097
860.78	-0.0069
861.074	0.0078
861.367	-0.0191
861.661	-0.0165
861.955	-0.02
862.248	0.0061
862.542	-0.0035
862.836	0.0034
863.129	0.0097
863.422	0.0073
863.716	0.0011
864.009	-0.0308
864.302	-0.0354
864.595	-0.0372
864.889	-0.0111
865.182	-0.0137
865.475	-0.0221
865.767	-0.0474
866.06	-0.0237
866.353	-0.0039
866.646	-0.0042
866.938	-0.0123
867.231	0.0025
867.524	0.0265
867.816	0.0136
868.109	-0.0172
868.401	-0.0365
868.693	-0.0294
868.985	-0.0111
869.278	-0.0127
869.57	-0.0053
869.862	0.0002
870.154	0.0077
870.446	0.0008
870.738	-0.0287
871.029	-0.035
871.321	-0.0444
871.613	-0.0358
871.904	-0.041
872.196	-0.0158
872.487	-0.0106
872.779	-0.001
873.07	-0.0191
873.362	-0.0298
873.653	-0.0553
873.944	-0.0427
874.235	-0.0302
874.526	0.0047
874.817	0.0379
875.108	0.0338
875.399	0.0207
875.69	-0.0135
875.981	-0.0407
876.271	-0.0273
876.562	-0.0332
876.853	0.0052
877.143	-0.0153
877.434	-0.0214
877.724	-0.0449
878.014	-0.0239
878.305	-0.0165
878.595	-0.0269
878.885	-0.03
879.175	-0.0322
879.465	-0.0116
879.755	-0.0213
880.045	-0.0122
880.335	-0.0068
880.624	0.0112
880.914	0.0112
