Data from DIblank1_080217_1a_Absorbance_16-29-47-752.txt Node
Date: Wed Aug 02 16:29:47 MDT 2017
User: Tank Lab
Spectrometer: FLMS01220
Trigger mode: 0
Integration Time (sec): 1.000000E-1
Scans to average: 10
Electric dark correction enabled: true
Nonlinearity correction enabled: false
Boxcar width: 1
XAxis mode: Wavelengths
Number of Pixels in Spectrum: 2048
>>>>>Begin Spectral Data<<<<<
179.47	-0.1349
179.856	-0.1349
180.241	-0
180.626	-0
181.011	1.4323
181.396	-0
181.781	-0.9534
182.166	-0
182.551	-0
182.936	-2.4048
183.321	-0
183.706	0.4433
184.091	1.5082
184.476	-0
184.86	-0
185.245	-0.13
185.63	0.3358
186.015	0.0015
186.399	-0
186.784	-0.2637
187.169	-0
187.553	1.6385
187.938	0.7334
188.322	-0.047
188.707	0.0278
189.091	-0.0152
189.475	-0.0134
189.86	-0.0222
190.244	-0.0291
190.629	0.0011
191.013	0.015
191.397	0.0154
191.781	0.001
192.165	-0.0002
192.55	0.0052
192.934	-0.0023
193.318	-0.0083
193.702	-0.015
194.086	-0.0064
194.47	-0.0003
194.854	0.0035
195.238	0.0051
195.622	-0.0037
196.006	-0.0006
196.389	-0.0034
196.773	-0.0067
197.157	-0.006
197.541	-0.0076
197.924	-0.0085
198.308	-0.0101
198.692	-0.0027
199.075	0.0029
199.459	0.0014
199.843	-0.0058
200.226	-0.0075
200.61	-0.0071
200.993	-0.0077
201.376	-0.0084
201.76	-0.0058
202.143	-0.0038
202.527	-0.0014
202.91	-0.0018
203.293	-0.0024
203.676	-0.0023
204.059	-0.0031
204.443	-0.0035
204.826	-0.0034
205.209	-0.0051
205.592	-0.0034
205.975	-0.0062
206.358	-0.0046
206.741	-0.0035
207.124	-0.001
207.507	-0.0012
207.89	-0.0033
208.273	-0.0054
208.655	-0.0043
209.038	-0.003
209.421	0.0002
209.804	-0.0024
210.186	-0.0013
210.569	-0.0042
210.951	-0.0031
211.334	-0.0033
211.717	0.0002
212.099	-0
212.482	-0.0004
212.864	-0.0018
213.246	-0.0001
213.629	-0.0003
214.011	-0.0001
214.393	-0.0024
214.776	-0.0027
215.158	-0.0045
215.54	-0.0031
215.922	-0.0035
216.305	-0.0009
216.687	-0.002
217.069	-0.0018
217.451	-0.002
217.833	-0.0003
218.215	0.0002
218.597	0.0016
218.979	0.0015
219.361	0.0016
219.742	0.0016
220.124	0.0011
220.506	-0.0006
220.888	-0.0038
221.27	-0.0042
221.651	-0.0029
222.033	-0.0002
222.415	0.001
222.796	-0
223.178	-0.0012
223.559	-0.0019
223.941	-0.002
224.322	-0.0023
224.704	-0.0025
225.085	-0.0013
225.466	-0.001
225.848	-0.001
226.229	-0.0001
226.61	-0.0013
226.992	-0.0011
227.373	-0.002
227.754	-0.0024
228.135	-0.0041
228.516	-0.0036
228.897	-0.0015
229.278	-0.0009
229.659	-0.0022
230.04	-0.0032
230.421	-0.0017
230.802	-0.0007
231.183	-0.0007
231.564	-0.0009
231.944	-0.0019
232.325	-0.002
232.706	-0.0018
233.087	-0.0019
233.467	-0.0018
233.848	-0.0024
234.229	-0.0027
234.609	-0.0033
234.99	-0.0033
235.37	-0.0023
235.751	-0.0009
236.131	-0.0017
236.511	-0.0009
236.892	0
237.272	-0.0008
237.652	-0.001
238.033	-0.0024
238.413	-0.0008
238.793	0.0003
239.173	0.0012
239.553	-0.0001
239.933	-0.0006
240.313	-0.0004
240.694	0.0012
241.074	0.0004
241.453	-0.0008
241.833	0.0001
242.213	0.0003
242.593	0
242.973	-0.0019
243.353	-0.0018
243.732	-0.0009
244.112	0.0002
244.492	-0.0003
244.872	-0.0013
245.251	-0.0004
245.631	-0.0013
246.01	-0.0005
246.39	-0.0008
246.769	-0
247.149	0.0015
247.528	0.0003
247.908	0.0015
248.287	0.001
248.666	0.0022
249.045	0.0012
249.425	-0.0003
249.804	-0.0002
250.183	-0.0004
250.562	0.001
250.941	0.0015
251.32	0.0013
251.699	0.0003
252.078	-0.0001
252.457	-0.0007
252.836	0.0007
253.215	-0.0011
253.594	0.0008
253.973	-0.0007
254.352	0.0009
254.731	0.0008
255.109	0.0015
255.488	0.0011
255.867	0.0011
256.245	0.0007
256.624	0.0004
257.002	-0.0003
257.381	0.0007
257.759	0.0018
258.138	0.0022
258.516	0.0008
258.895	-0.0001
259.273	-0.0015
259.651	-0.001
260.03	-0.0016
260.408	0
260.786	0.0002
261.164	0.0009
261.542	-0.0001
261.921	-0.0005
262.299	-0.0012
262.677	-0.0017
263.055	-0.0002
263.433	0.0008
263.811	0.0014
264.188	0.0007
264.566	0.0007
264.944	0.0004
265.322	0.0002
265.7	-0.0001
266.077	-0.0002
266.455	-0.0002
266.833	-0.001
267.21	-0.0001
267.588	-0.0003
267.966	-0.001
268.343	-0.0011
268.721	-0.0009
269.098	0.0007
269.475	0.0007
269.853	0.0006
270.23	-0.0009
270.607	-0.0011
270.985	-0.0014
271.362	0.0002
271.739	0.0002
272.116	0.0003
272.494	-0.0004
272.871	0.0002
273.248	-0.0002
273.625	0.0001
274.002	-0
274.379	0.0006
274.756	0.0006
275.132	0
275.509	-0.0011
275.886	-0.001
276.263	-0.001
276.64	-0.0003
277.016	-0.0002
277.393	-0.0003
277.77	-0.0004
278.146	-0.0007
278.523	0.0007
278.899	0.001
279.276	0.0022
279.652	0.0007
280.029	-0.0009
280.405	-0.002
280.782	-0.0021
281.158	0.0009
281.534	0.0016
281.91	0.0025
282.287	0.001
282.663	0.0004
283.039	-0.0001
283.415	-0.0005
283.791	0
284.167	0.0006
284.543	0.0014
284.919	0.0012
285.295	0.0008
285.671	-0.0001
286.047	-0.0007
286.423	-0.0003
286.799	0.0007
287.174	0.0022
287.55	0.0013
287.926	0.002
288.301	0.0003
288.677	0.0012
289.053	0.0011
289.428	0.0018
289.804	0.0021
290.179	0.0006
290.555	0.0011
290.93	0.0005
291.305	0.0007
291.681	0.0006
292.056	0.0001
292.431	0.0004
292.806	-0.0008
293.182	-0.0002
293.557	0.001
293.932	0.0021
294.307	0.0018
294.682	0.0002
295.057	-0.0001
295.432	0.0014
295.807	0.0014
296.182	0.002
296.557	-0.0005
296.932	-0.0006
297.306	0.0004
297.681	0.0017
298.056	0.0028
298.43	0.0013
298.805	0.0016
299.18	0.0014
299.554	0.0014
299.929	0
300.303	-0.0001
300.678	0.0006
301.052	0.0035
301.427	0.0028
301.801	0.003
302.175	0.0014
302.55	0.0014
302.924	0.0005
303.298	-0
303.672	0.0007
304.046	-0.0007
304.421	-0.0013
304.795	0.0003
305.169	0.0017
305.543	0.0033
305.917	0.0019
306.291	0.001
306.664	0.001
307.038	0.0008
307.412	0.0019
307.786	0.0021
308.16	0.0027
308.533	0.0022
308.907	0.0021
309.281	0.001
309.654	0.0016
310.028	0
310.401	0.0012
310.775	0.0019
311.148	0.002
311.522	0.0005
311.895	0.0005
312.268	0.0004
312.642	0.001
313.015	0.0001
313.388	0.0025
313.761	0.002
314.135	0.0021
314.508	0.001
314.881	0.0013
315.254	0.0022
315.627	0.0014
316	0.001
316.373	0.0018
316.746	0.0023
317.118	0.0019
317.491	0.0005
317.864	0.0015
318.237	0.0018
318.61	0.0011
318.982	0.0012
319.355	0.0035
319.727	0.0043
320.1	0.0035
320.473	0.0019
320.845	0.0019
321.218	0.0014
321.59	0.0014
321.962	-0.0002
322.335	0.0003
322.707	-0.0003
323.079	0.0013
323.452	0.0015
323.824	0.0005
324.196	-0.0006
324.568	-0.0021
324.94	-0.0002
325.312	0.0024
325.684	0.0032
326.056	0.0028
326.428	0.0017
326.8	0.0028
327.172	0.0021
327.544	0.0015
327.915	0.0016
328.287	0.0023
328.659	0.0013
329.031	-0.0004
329.402	-0.0017
329.774	-0.0017
330.145	-0.0013
330.517	-0.0003
330.888	0.0002
331.26	0.0006
331.631	0.0004
332.003	0.0012
332.374	0.0017
332.745	0.002
333.117	0.0006
333.488	-0.0006
333.859	-0.002
334.23	-0.0009
334.601	-0.0002
334.972	0.0015
335.343	0.0007
335.714	0.0008
336.085	0.0006
336.456	0.0018
336.827	0.002
337.198	0.0013
337.569	0.0009
337.94	0.0001
338.31	0.0007
338.681	0.0004
339.052	0.0017
339.422	0.0027
339.793	0.0048
340.164	0.0042
340.534	0.0027
340.905	0.0005
341.275	0.0003
341.645	0.0015
342.016	0
342.386	0.0004
342.756	0
343.127	0.0014
343.497	0.0022
343.867	0.0016
344.237	0.0007
344.607	0.0001
344.977	0.0007
345.347	0.0013
345.717	-0
346.087	-0.0013
346.457	-0.0015
346.827	-0.001
347.197	-0.0003
347.567	-0.0001
347.936	0.0001
348.306	-0.0004
348.676	-0.0004
349.046	-0.0006
349.415	0.0011
349.785	-0.0006
350.154	0.0002
350.524	-0
350.893	0.0004
351.263	0
351.632	-0.0019
352.001	0.001
352.371	0.0005
352.74	0.0021
353.109	0.0001
353.478	0.0011
353.847	0.0016
354.217	0.0004
354.586	-0
354.955	0.0002
355.324	0.0014
355.693	0.0006
356.062	0.0008
356.43	0.0009
356.799	0.0027
357.168	0.002
357.537	0.0019
357.906	0.0015
358.274	0.0017
358.643	0.0032
359.011	0.0026
359.38	0.0023
359.749	0.0012
360.117	0.0008
360.486	0.0021
360.854	0.0021
361.222	0.0032
361.591	0.002
361.959	0.0032
362.327	0.0029
362.695	0.003
363.064	0.0013
363.432	0.0009
363.8	0.0015
364.168	0.0018
364.536	0.0006
364.904	-0.0006
365.272	-0.0016
365.64	-0.0006
366.008	-0.0016
366.376	0.0005
366.743	-0.0011
367.111	-0.0008
367.479	-0.0028
367.847	-0.0015
368.214	-0.001
368.582	-0.0006
368.949	-0.0015
369.317	-0.0005
369.684	-0.0005
370.052	0.0007
370.419	0.0005
370.787	0.0012
371.154	0
371.521	0
371.889	0.0004
372.256	0.0003
372.623	-0.0006
372.99	-0.0015
373.357	-0.0005
373.724	0.0008
374.091	0.0016
374.458	0.0011
374.825	-0.0017
375.192	-0.0029
375.559	-0.0027
375.926	-0.0019
376.293	-0.0018
376.659	-0.0029
377.026	-0.0013
377.393	0.001
377.759	0.0017
378.126	0.0005
378.492	-0.0006
378.859	-0.0001
379.225	0.0012
379.592	0.0007
379.958	0.0013
380.325	0.0008
380.691	0.0021
381.057	0.0022
381.423	0.0027
381.79	0.0019
382.156	-0.0007
382.522	-0.0005
382.888	-0.0001
383.254	0.0025
383.62	0.0013
383.986	0.0021
384.352	0.0011
384.718	0.0016
385.084	-0.0011
385.449	-0.0001
385.815	-0.001
386.181	-0.001
386.547	-0.0018
386.912	-0.0024
387.278	0.0012
387.643	0.002
388.009	0.0035
388.374	-0.0009
388.74	0.0008
389.105	0.0004
389.471	0.0026
389.836	0.0025
390.201	0.001
390.566	0.0016
390.932	-0.0003
391.297	0.0015
391.662	-0.0001
392.027	0.0026
392.392	0.0017
392.757	0.0023
393.122	0.0013
393.487	0.0034
393.852	0.0047
394.217	0.0019
394.582	-0
394.946	0.0008
395.311	0.002
395.676	0.0022
396.04	-0.0024
396.405	-0.0043
396.77	-0.0034
397.134	-0.0032
397.499	-0.0017
397.863	-0.0038
398.227	-0.0017
398.592	-0.0002
398.956	0.0015
399.32	0.0018
399.685	0.001
400.049	0.0015
400.413	0.0014
400.777	0.0009
401.141	0.0018
401.505	0.0009
401.869	0.0011
402.233	0.0001
402.597	0.0005
402.961	0.0017
403.325	0.0025
403.689	0.0044
404.053	0.0055
404.416	0.0046
404.78	0.0025
405.144	0.003
405.507	0.0006
405.871	0.0008
406.234	-0.002
406.598	0.001
406.961	0.0011
407.325	0.0014
407.688	0.0016
408.051	0.002
408.415	0.0024
408.778	0.0027
409.141	0.0034
409.504	0.0027
409.867	0.0038
410.23	0.003
410.593	0.0032
410.956	-0.001
411.319	-0.0036
411.682	-0.0043
412.045	-0.004
412.408	-0.0023
412.771	-0.0009
413.134	0.0001
413.496	-0.0001
413.859	-0.0012
414.222	-0.0002
414.584	0.0031
414.947	0.002
415.309	0.0023
415.672	-0
416.034	0.0023
416.396	0.0017
416.759	0.0028
417.121	0.0014
417.483	0.0005
417.846	-0.002
418.208	-0.0022
418.57	-0.002
418.932	-0.0005
419.294	-0.0005
419.656	-0.0004
420.018	-0.0007
420.38	0.0005
420.742	0.0003
421.104	0.0001
421.466	-0.0003
421.827	0.0009
422.189	0.0004
422.551	-0.0001
422.912	-0.0025
423.274	-0.0003
423.636	-0.001
423.997	0.0014
424.359	0.0028
424.72	0.0042
425.081	0.0044
425.443	0.0012
425.804	0.0017
426.165	-0.0019
426.527	0.0004
426.888	-0.0008
427.249	0.0043
427.61	0.004
427.971	0.004
428.332	0.0016
428.693	0.001
429.054	0.0013
429.415	0.0001
429.776	0.0021
430.137	0.0014
430.498	0.0014
430.858	-0.0004
431.219	0.001
431.58	0.0026
431.94	0.0034
432.301	0.0059
432.661	0.0046
433.022	0.0043
433.382	0.0008
433.743	0.0017
434.103	-0.0005
434.463	-0.0013
434.824	-0.002
435.184	-0.0008
435.544	-0.0008
435.904	-0.0004
436.264	-0.0012
436.624	0.003
436.985	0.0017
437.345	0.0037
437.704	0.0001
438.064	-0
438.424	-0.0008
438.784	0.0001
439.144	0.0012
439.504	0.002
439.863	0.0005
440.223	0
440.583	-0.0017
440.942	-0.002
441.302	-0.0017
441.661	-0.0027
442.021	-0.0011
442.38	-0.0008
442.739	0.0008
443.099	0.0036
443.458	0.0029
443.817	0.0036
444.176	0.0003
444.536	-0.0005
444.895	-0.0021
445.254	-0.0013
445.613	0.0018
445.972	0.0001
446.331	0.0009
446.69	-0.0013
447.049	0.002
447.407	-0.0016
447.766	-0.0014
448.125	-0.0025
448.484	0.0006
448.842	0.0012
449.201	0.0029
449.559	0.0022
449.918	0.0002
450.276	-0.0019
450.635	-0.0022
450.993	-0.0007
451.352	-0.0021
451.71	-0.0024
452.068	-0.0024
452.426	0.0012
452.785	0.0038
453.143	0.0023
453.501	0.0008
453.859	-0.0021
454.217	-0.0005
454.575	-0.0012
454.933	-0.0012
455.291	0.0003
455.649	0.0034
456.006	0.005
456.364	0.0032
456.722	0.0032
457.079	0.0041
457.437	0.0051
457.795	0.0017
458.152	0.0024
458.51	0.0033
458.867	0.0034
459.225	0.0002
459.582	-0.0001
459.939	-0.0006
460.297	0.0004
460.654	-0.0011
461.011	-0.0026
461.368	-0.0034
461.725	-0.0015
462.082	0.0013
462.44	0.0025
462.797	-0.0011
463.153	-0.0003
463.51	0.0004
463.867	0.0022
464.224	0.0014
464.581	0.0011
464.938	0.0028
465.294	0.0014
465.651	0.0023
466.008	0.0022
466.364	0.0021
466.721	0.0046
467.077	0.0042
467.434	0.0072
467.79	0.0025
468.146	0.0031
468.503	0.0018
468.859	0.002
469.215	-0.0003
469.571	-0.001
469.927	-0.0009
470.284	0.0003
470.64	0.0001
470.996	0.0004
471.352	0.0014
471.707	-0.001
472.063	-0.0023
472.419	-0.0012
472.775	-0.0004
473.131	-0.001
473.486	-0.0043
473.842	-0.0033
474.198	-0.0018
474.553	-0.0005
474.909	0.0006
475.264	0.0013
475.62	-0.0004
475.975	-0.0012
476.331	-0.0032
476.686	-0.0012
477.041	0.0009
477.396	0.0005
477.752	0.0021
478.107	0.0018
478.462	0.0057
478.817	0.0036
479.172	0.0016
479.527	0.001
479.882	0
480.237	0.0011
480.591	-0.0007
480.946	0.0013
481.301	-0.0003
481.656	0.0015
482.01	0.0012
482.365	0.0039
482.72	0.0032
483.074	0.0031
483.429	0.0019
483.783	0.0012
484.137	0.0008
484.492	0.0008
484.846	0.003
485.2	0.0021
485.555	0.0021
485.909	0.001
486.263	0.0005
486.617	-0.001
486.971	-0.0014
487.325	0.0005
487.679	0.0006
488.033	-0.0005
488.387	-0.0004
488.741	-0.0006
489.094	-0.0018
489.448	-0.0035
489.802	-0.0025
490.156	-0.0023
490.509	-0.003
490.863	-0.0041
491.216	-0.0018
491.57	0.0008
491.923	0.003
492.277	0.0015
492.63	-0.0013
492.983	-0.0034
493.337	-0.0019
493.69	0.0007
494.043	-0.0002
494.396	0.0006
494.749	0.0013
495.102	0.0022
495.455	-0.0001
495.808	-0.0024
496.161	0.0011
496.514	0.0023
496.867	0.0031
497.22	0.0015
497.572	0.0004
497.925	0.0007
498.278	0.0008
498.63	0.0003
498.983	0.0008
499.335	0.0003
499.688	0.0005
500.04	-0.0001
500.393	-0.0001
500.745	0.0009
501.097	0.0013
501.449	-0.0003
501.802	-0.002
502.154	-0.0015
502.506	-0.001
502.858	0.0011
503.21	0.0005
503.562	-0.0005
503.914	0.0001
504.266	-0.0005
504.618	-0.0001
504.969	0.0005
505.321	0.0004
505.673	0.0024
506.025	-0.0016
506.376	0
506.728	-0.0027
507.079	-0.001
507.431	-0.0014
507.782	0.0009
508.134	0.0017
508.485	0.0008
508.836	0.001
509.188	-0.0007
509.539	0.0004
509.89	-0.0016
510.241	-0.001
510.592	-0.0012
510.943	0.0007
511.294	0.0003
511.645	-0.0004
511.996	-0.0009
512.347	-0.0017
512.698	-0.001
513.049	-0.0017
513.399	0.0007
513.75	-0.002
514.101	0.0007
514.451	0.0008
514.802	-0.0002
515.152	-0.0013
515.503	-0.0043
515.853	-0.0012
516.203	-0.0018
516.554	0.0008
516.904	0.0004
517.254	-0.0005
517.604	0
517.955	0.0008
518.305	0.0029
518.655	0.0008
519.005	-0.0007
519.355	-0.0019
519.705	0.0016
520.055	0.0024
520.404	0.0032
520.754	0.0019
521.104	0.0032
521.454	0.0017
521.803	0.001
522.153	-0.0006
522.502	-0.0023
522.852	-0.0049
523.201	-0.0037
523.551	-0.0014
523.9	0.001
524.249	0.0025
524.599	0.0006
524.948	0
525.297	-0.0029
525.646	-0.0002
525.995	-0.0002
526.344	0.0013
526.694	0.0019
527.042	0.0033
527.391	0.0034
527.74	0.002
528.089	-0.0004
528.438	0.0003
528.787	0.0004
529.135	0.0021
529.484	-0.0011
529.833	0.0004
530.181	-0.0024
530.53	-0.0015
530.878	-0.0031
531.227	-0.0014
531.575	-0.0018
531.923	-0.0027
532.271	-0.0041
532.62	-0.0063
532.968	-0.0026
533.316	-0
533.664	0.0037
534.012	0.002
534.36	-0.0011
534.708	-0.002
535.056	-0.0014
535.404	0.0011
535.752	0.0017
536.1	-0.0003
536.447	-0.0008
536.795	-0.0011
537.143	-0.0001
537.49	0.0004
537.838	-0.0009
538.185	-0.0038
538.533	-0.0041
538.88	-0.0037
539.228	-0.0045
539.575	-0.005
539.922	-0.0035
540.269	-0.0005
540.617	0.0003
540.964	-0.0031
541.311	-0.0044
541.658	-0.0068
542.005	-0.0056
542.352	-0.0066
542.699	-0.0041
543.045	-0.0014
543.392	0.0018
543.739	0.0004
544.086	-0.0004
544.432	-0.0001
544.779	0.0008
545.126	-0.0003
545.472	-0.0027
545.819	-0.004
546.165	-0.0036
546.512	-0.0025
546.858	0.0002
547.204	-0.0001
547.55	0.0025
547.897	0.0022
548.243	0.0023
548.589	0.0021
548.935	0.0008
549.281	0.0022
549.627	0.0021
549.973	0.0011
550.319	-0.0013
550.665	-0.0025
551.01	-0.0038
551.356	-0.0016
551.702	-0.0022
552.048	-0.0005
552.393	-0.0022
552.739	-0.0033
553.084	-0.0003
553.43	0.0002
553.775	0.0029
554.12	0.0024
554.466	0.0031
554.811	0.0005
555.156	-0.0011
555.502	-0.0019
555.847	-0.0011
556.192	-0.0013
556.537	-0.0007
556.882	-0.0019
557.227	-0.0012
557.572	-0.0025
557.917	-0.0023
558.261	-0.0032
558.606	-0.0043
558.951	-0.0049
559.295	-0.0046
559.64	-0.0037
559.985	-0.0023
560.329	-0.0076
560.674	-0.0069
561.018	-0.006
561.363	-0.0018
561.707	-0.0029
562.051	-0.0042
562.395	-0.0015
562.74	-0.0006
563.084	0.0006
563.428	-0.0013
563.772	-0.0011
564.116	-0.0022
564.46	-0.0023
564.804	-0.0031
565.148	-0.0026
565.492	-0.0029
565.835	-0.001
566.179	-0.0018
566.523	-0.0017
566.866	-0.0013
567.21	-0.0019
567.554	-0.0026
567.897	-0.0019
568.24	-0.0022
568.584	-0.0008
568.927	-0.004
569.271	-0.0038
569.614	-0.004
569.957	0.0012
570.3	0.0036
570.643	0.005
570.986	0.0026
571.329	0.0033
571.672	0.0001
572.015	-0.0017
572.358	-0.0021
572.701	-0.0022
573.044	-0.0027
573.387	-0.0046
573.729	-0.003
574.072	-0.0007
574.414	-0.0009
574.757	0.0006
575.099	-0.0011
575.442	-0.0022
575.784	-0.0031
576.127	-0.0019
576.469	-0.0006
576.811	-0.0016
577.153	-0.0013
577.496	-0.0005
577.838	0.0007
578.18	0.002
578.522	0.0025
578.864	0.0014
579.206	0.0018
579.548	0.0018
579.889	0.001
580.231	-0.0011
580.573	-0.0014
580.915	-0.0013
581.256	-0.0041
581.598	-0.0041
581.939	-0.0046
582.281	-0.0008
582.622	-0.0009
582.964	-0.0009
583.305	-0
583.646	-0.0024
583.988	0.0011
584.329	0.0013
584.67	-0.0002
585.011	-0.0038
585.352	-0.0069
585.693	-0.0063
586.034	-0.0053
586.375	-0.0058
586.716	-0.0027
587.057	-0.0016
587.398	-0.0019
587.738	-0.0019
588.079	-0.0034
588.42	-0.0024
588.76	-0.0039
589.101	-0.0028
589.441	-0.0041
589.782	-0.0042
590.122	-0.0039
590.463	-0.002
590.803	-0.0026
591.143	-0.0016
591.483	0.0001
591.823	0.0013
592.164	-0.0005
592.504	0.0009
592.844	-0.0008
593.184	-0.0027
593.523	-0.0061
593.863	-0.0048
594.203	-0.0024
594.543	0.0001
594.883	-0.0023
595.222	-0.0019
595.562	0
595.901	-0.0007
596.241	-0.0027
596.58	-0.0051
596.92	-0.004
597.259	-0.0046
597.599	-0.0039
597.938	-0.0009
598.277	0.003
598.616	-0.0005
598.955	-0.0026
599.295	-0.0042
599.634	-0
599.973	0.0012
600.312	-0.0025
600.65	-0.0049
600.989	-0.006
601.328	-0.0024
601.667	0.0041
602.005	0.0018
602.344	-0.0002
602.683	-0.004
603.021	-0.0043
603.36	-0.0043
603.698	-0.0064
604.037	-0.0062
604.375	-0.0061
604.713	-0.0064
605.052	-0.0072
605.39	-0.0048
605.728	-0.0015
606.066	0.0058
606.404	0.0037
606.742	-0.0001
607.08	-0.0011
607.418	-0.0024
607.756	-0.0003
608.094	-0.0004
608.431	0.0018
608.769	0.001
609.107	-0.001
609.444	-0.0031
609.782	-0.003
610.12	-0.0026
610.457	-0.0004
610.794	0.0012
611.132	-0.0012
611.469	-0.0027
611.806	-0.0058
612.144	-0.0084
612.481	-0.0075
612.818	-0.0047
613.155	0.0032
613.492	0.0013
613.829	-0.0001
614.166	-0.0028
614.503	-0.0005
614.84	-0.0012
615.176	-0.0015
615.513	0.0016
615.85	0.0028
616.187	0.0028
616.523	-0.0016
616.86	-0.0025
617.196	-0.0026
617.533	-0.002
617.869	-0.003
618.205	-0.0032
618.542	-0
618.878	-0.0015
619.214	-0.0006
619.55	-0.0039
619.886	-0.0031
620.222	-0.006
620.558	-0.0067
620.894	-0.006
621.23	-0.0071
621.566	-0.0071
621.902	-0.0073
622.238	-0.0055
622.573	-0.002
622.909	-0.0014
623.244	-0.0053
623.58	-0.0119
623.916	-0.0122
624.251	-0.0073
624.586	-0.0009
624.922	-0.0009
625.257	-0.0027
625.592	-0.0039
625.927	-0.0035
626.263	-0.0021
626.598	-0.0053
626.933	-0.0056
627.268	-0.0045
627.603	-0.0018
627.938	-0.0043
628.272	-0.0034
628.607	-0.0041
628.942	-0.003
629.277	-0.004
629.611	-0.0053
629.946	-0.0066
630.281	-0.01
630.615	-0.0099
630.949	-0.0093
631.284	-0.0072
631.618	-0.0044
631.953	-0.0054
632.287	-0.0051
632.621	-0.0085
632.955	-0.0077
633.289	-0.0071
633.623	-0.0097
633.957	-0.0064
634.291	-0.0052
634.625	-0.0025
634.959	-0.0054
635.293	-0.0065
635.627	-0.0031
635.96	0
636.294	0.0014
636.627	-0.0005
636.961	-0.0008
637.294	-0.0048
637.628	-0.0037
637.961	-0.006
638.295	-0.0064
638.628	-0.0045
638.961	-0.0029
639.294	-0.0015
639.628	-0.004
639.961	-0.0057
640.294	-0.0059
640.627	-0.0055
640.96	-0.0052
641.293	-0.0084
641.625	-0.0054
641.958	-0.0049
642.291	0.0003
642.624	-0.0023
642.956	-0.002
643.289	-0.0035
643.621	-0.0003
643.954	-0.0019
644.286	-0.0011
644.619	-0.0069
644.951	-0.0062
645.283	-0.0087
645.616	-0.0065
645.948	-0.0061
646.28	-0.0024
646.612	-0.0043
646.944	-0.0007
647.276	-0.0031
647.608	-0.0028
647.94	-0.0047
648.272	-0.0074
648.603	-0.007
648.935	-0.0072
649.267	-0.0071
649.598	-0.0087
649.93	-0.0089
650.261	-0.0059
650.593	-0.0039
650.924	-0.005
651.256	-0.0049
651.587	-0.0026
651.918	-0.0026
652.25	-0.0064
652.581	-0.0097
652.912	-0.0074
653.243	-0.0009
653.574	-0.0003
653.905	-0.0036
654.236	-0.0095
654.567	-0.007
654.897	-0.0092
655.228	-0.0081
655.559	-0.0067
655.89	-0.0041
656.22	-0.0053
656.551	-0.0071
656.881	-0.0046
657.212	-0.0009
657.542	-0.002
657.872	-0.0072
658.203	-0.0105
658.533	-0.001
658.863	0.0053
659.193	-0.0017
659.523	-0.0037
659.853	-0.0112
660.183	-0.0052
660.513	-0.0069
660.843	-0.0038
661.173	-0.0044
661.503	-0.0034
661.833	-0.005
662.162	-0.0065
662.492	-0.0035
662.822	-0.0024
663.151	-0.0001
663.481	-0.0003
663.81	-0.0034
664.139	-0.0045
664.469	-0.0068
664.798	-0.0077
665.127	-0.0045
665.456	-0.0031
665.785	0.001
666.114	-0.0009
666.443	-0.0027
666.772	-0.0022
667.101	-0.0025
667.43	-0.0003
667.759	-0.0018
668.088	-0.0042
668.416	-0.011
668.745	-0.0128
669.074	-0.0141
669.402	-0.0117
669.731	-0.0127
670.059	-0.0083
670.388	-0.0061
670.716	-0.0049
671.044	-0.0069
671.372	-0.0038
671.701	-0.0022
672.029	-0.0009
672.357	-0.004
672.685	-0.0053
673.013	-0.0069
673.341	-0.0048
673.669	-0.0014
673.996	0.0025
674.324	0.0032
674.652	0.001
674.98	-0.0015
675.307	-0.0049
675.635	-0.0034
675.962	-0.0012
676.29	-0.0012
676.617	-0.005
676.945	-0.0089
677.272	-0.0125
677.599	-0.0125
677.926	-0.0064
678.253	-0.0024
678.581	-0.0055
678.908	-0.0114
679.235	-0.0092
679.561	-0.005
679.888	-0.0078
680.215	-0.0071
680.542	-0.0067
680.869	-0.0056
681.195	-0.0096
681.522	-0.0087
681.849	-0.0105
682.175	-0.012
682.502	-0.0157
682.828	-0.0136
683.154	-0.0095
683.481	-0.0088
683.807	-0.0086
684.133	-0.0103
684.459	-0.0064
684.785	-0.0009
685.111	0.0009
685.437	0.0002
685.763	-0.004
686.089	-0.0085
686.415	-0.0077
686.741	-0.0053
687.067	0.0003
687.392	0.0016
687.718	0.0009
688.043	-0.003
688.369	-0.0058
688.694	-0.0043
689.02	-0.0078
689.345	-0.0045
689.67	-0.0039
689.996	0.004
690.321	-0.0007
690.646	-0.0043
690.971	-0.0033
691.296	-0.0053
691.621	-0.0033
691.946	-0.0054
692.271	-0.0023
692.596	-0.0015
692.921	-0.0015
693.245	-0.0008
693.57	-0.0031
693.895	-0.0066
694.219	-0.0085
694.544	-0.0093
694.868	-0.0044
695.193	-0.0041
695.517	-0.0008
695.841	-0.0035
696.166	-0.0006
696.49	-0.0046
696.814	-0.001
697.138	-0.0045
697.462	-0.0009
697.786	-0.0065
698.11	-0.0051
698.434	-0.0031
698.758	-0.0056
699.081	-0.0086
699.405	-0.0158
699.729	-0.0103
700.052	-0.0053
700.376	-0.0039
700.7	-0.003
701.023	-0.005
701.346	-0.0032
701.67	-0.0033
701.993	0.0012
702.316	-0.0026
702.639	-0.0058
702.963	-0.0055
703.286	-0.0025
703.609	-0.0039
703.932	-0.0069
704.255	-0.0065
704.578	-0.0105
704.9	-0.0055
705.223	-0.0049
705.546	0.0023
705.868	-0.0002
706.191	-0.0047
706.514	-0.0058
706.836	-0.009
707.159	-0.0051
707.481	-0.0083
707.803	-0.0099
708.126	-0.0085
708.448	-0.0069
708.77	-0.0069
709.092	-0.0047
709.414	-0.0068
709.736	-0.0046
710.058	-0.0063
710.38	-0.0037
710.702	-0.0029
711.024	-0.0067
711.345	-0.0094
711.667	-0.0105
711.989	-0.0061
712.31	-0.006
712.632	-0.0038
712.953	-0.006
713.275	-0.0051
713.596	-0.0018
713.917	-0.0035
714.239	-0.0012
714.56	-0.0055
714.881	-0.0031
715.202	-0.0062
715.523	-0.0068
715.844	-0.0046
716.165	0.0002
716.486	0.0011
716.807	-0.0003
717.128	-0.0011
717.448	-0.0017
717.769	0.0009
718.09	-0.004
718.41	-0.0069
718.731	-0.0083
719.051	-0.0073
719.372	-0.0037
719.692	-0.0078
720.012	-0.0021
720.332	-0.0047
720.653	0.0001
720.973	-0.0005
721.293	0.0022
721.613	-0.004
721.933	-0.0056
722.253	-0.0053
722.573	0.0003
722.892	-0.0008
723.212	-0.0025
723.532	-0.0033
723.851	-0.0065
724.171	-0.0109
724.491	-0.0101
724.81	-0.0035
725.129	-0.0013
725.449	-0.0048
725.768	-0.0077
726.087	-0.0014
726.407	0.0018
726.726	0.0015
727.045	-0.0018
727.364	-0.005
727.683	-0.0043
728.002	-0.0106
728.321	-0.0071
728.64	-0.01
728.958	-0.0072
729.277	-0.0066
729.596	-0.002
729.914	0.0024
730.233	-0.0011
730.551	-0.006
730.87	-0.0079
731.188	-0.0052
731.507	-0.0031
731.825	-0.0059
732.143	-0.0066
732.461	-0.007
732.779	-0.0065
733.097	-0.0087
733.415	-0.0093
733.733	-0.0073
734.051	-0.0082
734.369	-0.0067
734.687	-0.0042
735.005	-0.0005
735.322	-0.0021
735.64	-0.0046
735.957	-0.007
736.275	-0.0085
736.592	-0.0092
736.91	-0.0051
737.227	-0
737.544	0.0005
737.862	0.0014
738.179	0.0003
738.496	-0.0021
738.813	-0.0049
739.13	-0.0049
739.447	-0.0036
739.764	-0.0042
740.081	-0.0082
740.398	-0.0125
740.714	-0.0147
741.031	-0.0133
741.348	-0.0066
741.664	-0.0036
741.981	-0.0013
742.297	-0.0012
742.614	-0.0036
742.93	-0.0043
743.246	-0.0049
743.563	-0.0029
743.879	-0.0052
744.195	-0.0066
744.511	-0.0038
744.827	0.0022
745.143	0.0014
745.459	-0.0008
745.775	-0.006
746.091	-0.003
746.406	-0.0045
746.722	-0.0019
747.038	-0.0024
747.353	-0.0053
747.669	-0.0091
747.984	-0.0073
748.3	-0.0037
748.615	0.0011
748.93	-0.0015
749.246	-0.0009
749.561	-0.0016
749.876	-0.0002
750.191	0.0022
750.506	0.0024
750.821	0.0014
751.136	-0.0023
751.451	-0.0027
751.766	-0.0051
752.08	-0.0026
752.395	-0.0062
752.71	-0.0058
753.024	-0.007
753.339	-0.0046
753.653	-0.0042
753.968	-0.0053
754.282	-0.0097
754.596	-0.0101
754.911	-0.0071
755.225	-0.0036
755.539	-0.0052
755.853	-0.01
756.167	-0.0103
756.481	-0.0087
756.795	-0.0055
757.109	-0.0071
757.423	-0.012
757.736	-0.014
758.05	-0.0141
758.364	-0.0093
758.677	-0.0097
758.991	-0.007
759.304	-0.0072
759.618	-0.0027
759.931	-0.0047
760.244	-0.0043
760.558	-0.0067
760.871	-0.008
761.184	-0.0099
761.497	-0.0126
761.81	-0.0106
762.123	-0.0048
762.436	-0.0074
762.749	-0.0093
763.062	-0.0097
763.374	-0.0045
763.687	0.0013
764	-0.0038
764.312	-0.0027
764.625	-0.0073
764.937	-0.0101
765.25	-0.014
765.562	-0.0087
765.874	0.0013
766.186	0.0007
766.499	-0.0059
766.811	-0.0116
767.123	-0.0062
767.435	-0.0036
767.747	-0.0017
768.059	-0.0028
768.37	-0.0003
768.682	-0.0009
768.994	-0.0028
769.306	-0.0098
769.617	-0.0107
769.929	-0.0096
770.24	-0.0017
770.552	-0.0003
770.863	-0.004
771.174	-0.008
771.486	-0.0085
771.797	-0.0079
772.108	-0.008
772.419	-0.007
772.73	-0.0018
773.041	0.0024
773.352	0.0032
773.663	0.0025
773.974	0.0024
774.285	-0.0038
774.595	-0.0081
774.906	-0.0096
775.217	-0.0115
775.527	-0.0109
775.838	-0.0136
776.148	-0.0059
776.458	-0.006
776.769	-0.0036
777.079	-0.0048
777.389	-0.0066
777.699	-0.0087
778.009	-0.0107
778.319	-0.0031
778.629	0.0043
778.939	0.0043
779.249	0.0013
779.559	-0.0056
779.869	-0.0052
780.178	-0.0089
780.488	-0.014
780.798	-0.0156
781.107	-0.0139
781.417	-0.0113
781.726	-0.0107
782.035	-0.0092
782.345	-0.0089
782.654	-0.0055
782.963	-0.009
783.272	-0.0094
783.581	-0.0102
783.89	-0.0096
784.199	-0.0034
784.508	-0.0085
784.817	-0.0104
785.126	-0.0137
785.434	-0.0103
785.743	-0.0071
786.052	-0.0062
786.36	-0.0072
786.669	-0.0099
786.977	-0.0133
787.285	-0.0135
787.594	-0.0089
787.902	-0.0106
788.21	-0.0121
788.518	-0.0119
788.826	-0.0096
789.135	-0.0088
789.442	-0.014
789.75	-0.0128
790.058	-0.0093
790.366	-0.0019
790.674	-0.0021
790.981	-0.0001
791.289	-0.0006
791.597	0.0023
791.904	-0.001
792.212	-0.0003
792.519	-0.0055
792.826	-0.0056
793.134	-0.0091
793.441	-0.0086
793.748	-0.0093
794.055	-0.0106
794.362	-0.0115
794.669	-0.0091
794.976	-0.0094
795.283	0.0013
795.59	-0.0014
795.897	-0.002
796.203	-0.0079
796.51	-0.0031
796.817	0.004
797.123	0.001
797.43	-0.0075
797.736	-0.0156
798.042	-0.0198
798.349	-0.0156
798.655	-0.0105
798.961	-0.0044
799.267	-0.003
799.573	-0.0027
799.879	-0.0071
800.185	-0.0053
800.491	-0.0073
800.797	-0.0065
801.103	-0.0057
801.408	-0.0026
801.714	0.001
802.02	0.0004
802.325	0.0054
802.631	0.0054
802.936	0.006
803.242	0.0047
803.547	-0.0005
803.852	0.0009
804.157	-0.0028
804.462	-0.0042
804.768	-0.0001
805.073	-0.0017
805.378	0.0036
805.682	-0.0031
805.987	-0.0066
806.292	-0.0066
806.597	-0.0104
806.902	-0.0061
807.206	-0.0108
807.511	-0.0071
807.815	-0.0038
808.12	-0.0059
808.424	-0.001
808.728	-0.011
809.033	-0.0003
809.337	-0.0092
809.641	-0.0058
809.945	-0.0129
810.249	-0.0092
810.553	-0.0091
810.857	-0.0133
811.161	-0.0131
811.465	-0.0151
811.768	-0.0003
812.072	0.0033
812.376	0.0057
812.679	-0.0014
812.983	-0.0028
813.286	-0.0078
813.59	-0.007
813.893	-0.0013
814.196	0.0075
814.499	0.0043
814.803	-0.0012
815.106	0.0012
815.409	0.0107
815.712	0.0142
816.015	0.005
816.318	0.0047
816.62	-0.0022
816.923	0.0045
817.226	-0.0067
817.528	-0.0041
817.831	-0.0081
818.133	-0.0037
818.436	-0.0068
818.738	-0.0084
819.041	-0.0144
819.343	-0.0114
819.645	-0.012
819.947	-0.0084
820.249	-0.0083
820.551	-0.0071
820.853	-0.0054
821.155	-0.0074
821.457	-0.0105
821.759	-0.0146
822.061	-0.0174
822.362	-0.0125
822.664	0.0003
822.966	0.0013
823.267	0.0016
823.569	-0.0041
823.87	-0.0032
824.171	-0.0044
824.473	-0.0061
824.774	0.0044
825.075	0.0077
825.376	0.0121
825.677	0.0054
825.978	0.0059
826.279	-0.0038
826.58	-0.004
826.881	-0.009
827.181	0.0019
827.482	0.0086
827.783	0.0018
828.083	-0.002
828.384	-0.0143
828.684	-0.0109
828.985	-0.0163
829.285	-0.0103
829.585	-0.0052
829.885	0.0011
830.185	-0.0017
830.486	-0.0066
830.786	-0.0065
831.086	-0.0022
831.385	0.0044
831.685	0.0059
831.985	0.0075
832.285	0.0117
832.585	0.0157
832.884	0.0129
833.184	0.0043
833.483	0.0077
833.783	0.0052
834.082	0.0019
834.381	-0.0063
834.681	-0.0147
834.98	-0.008
835.279	-0.0144
835.578	-0.0082
835.877	-0.0152
836.176	-0.0138
836.475	-0.0029
836.774	-0.0044
837.072	-0.002
837.371	-0.0101
837.67	-0.0057
837.968	-0.0096
838.267	-0.0167
838.565	-0.015
838.864	-0.0126
839.162	-0.0067
839.46	0.0007
839.759	0.0047
840.057	0.0073
840.355	0.007
840.653	0.0076
840.951	0.004
841.249	0.0075
841.547	0.01
841.845	0.0099
842.142	0.0093
842.44	0.0032
842.738	0.0109
843.035	-0.0062
843.333	-0.0169
843.63	-0.0295
843.928	-0.0121
844.225	0.0054
844.522	0.0214
844.82	0.0121
845.117	-0.0065
845.414	-0.0215
845.711	-0.0226
846.008	-0.0082
846.305	-0.0095
846.602	-0.0132
846.898	-0.0201
847.195	-0.019
847.492	-0.018
847.788	-0.0259
848.085	-0.0233
848.382	-0.0151
848.678	-0.0031
848.974	-0.0006
849.271	-0.0065
849.567	-0.0028
849.863	-0.0108
850.159	-0.0261
850.455	-0.0177
850.751	-0.0008
851.047	0.0082
851.343	-0.0112
851.639	-0.0246
851.935	-0.0177
852.23	-0.0232
852.526	-0.0097
852.822	-0.016
853.117	-0.0139
853.413	-0.0237
853.708	-0.0247
854.003	-0.0247
854.299	-0.0248
854.594	-0.0247
854.889	-0.0063
855.184	-0.0237
855.479	-0.0211
855.774	-0.0342
856.069	-0.0177
856.364	-0.004
856.659	0.0023
856.954	0.0015
857.248	-0.0019
857.543	-0.0115
857.837	-0.0166
858.132	-0.0193
858.426	-0.0127
858.721	-0.0055
859.015	-0.0062
859.309	-0.0062
859.604	0.0249
859.898	0.045
860.192	0.0383
860.486	0.0103
860.78	0.0068
861.074	0.0125
861.367	0.0129
861.661	0.0088
861.955	0.0157
862.248	0.0238
862.542	0.016
862.836	0.0046
863.129	-0.0102
863.422	-0.0375
863.716	-0.0085
864.009	-0.0084
864.302	0.006
864.595	-0.0224
864.889	-0.0177
865.182	-0.002
865.475	0.0281
865.767	0.0128
866.06	0.0187
866.353	-0.0005
866.646	-0.0061
866.938	-0.0168
867.231	-0.0118
867.524	0.0098
867.816	0.0103
868.109	-0.0052
868.401	-0.0205
868.693	-0.0235
868.985	-0.0006
869.278	0.0108
869.57	0.0151
869.862	-0.0042
870.154	-0.0175
870.446	-0.0248
870.738	-0.0262
871.029	0.0012
871.321	0.0127
871.613	0.0251
871.904	-0
872.196	-0.0272
872.487	-0.0402
872.779	-0.0309
873.07	-0.0028
873.362	0.0055
873.653	-0.0053
873.944	-0.0498
874.235	-0.0332
874.526	-0.0176
874.817	0.0023
875.108	-0.0032
875.399	-0.0217
875.69	-0.0455
875.981	-0.0539
876.271	-0.0362
876.562	-0.0308
876.853	-0.016
877.143	-0.0109
877.434	0.0037
877.724	-0.0078
878.014	0.001
878.305	0.0316
878.595	0.037
878.885	0.0261
879.175	0.0133
879.465	0.0108
879.755	0.002
880.045	-0.0037
880.335	-0.0007
880.624	0.0106
880.914	0.0106
