Data from DIblank4_072817_1b_Absorbance_19-35-01-022.txt Node
Date: Fri Jul 28 19:35:01 MDT 2017
User: Tank Lab
Spectrometer: FLMS01220
Trigger mode: 0
Integration Time (sec): 1.000000E-1
Scans to average: 10
Electric dark correction enabled: true
Nonlinearity correction enabled: false
Boxcar width: 1
XAxis mode: Wavelengths
Number of Pixels in Spectrum: 2048
>>>>>Begin Spectral Data<<<<<
179.47	-0
179.856	-0
180.241	-0
180.626	-0
181.011	0.2339
181.396	-0.1715
181.781	-0.1091
182.166	-0.1953
182.551	0.5165
182.936	0.6115
183.321	-0
183.706	0.1921
184.091	-0.6414
184.476	-0.6086
184.86	-0
185.245	-1.021
185.63	-0.3647
186.015	-0.358
186.399	0.2713
186.784	-0
187.169	-0
187.553	-0
187.938	-0
188.322	-0.1224
188.707	-0.0782
189.091	-0.0298
189.475	0.0143
189.86	-0.0165
190.244	-0.0147
190.629	-0.0296
191.013	0.0052
191.397	0.0225
191.781	0.0286
192.165	0.0215
192.55	0.0192
192.934	0.0088
193.318	0.0057
193.702	0.009
194.086	0.0065
194.47	0.005
194.854	-0.0017
195.238	-0.0013
195.622	-0.0015
196.006	-0.0022
196.389	-0.0051
196.773	-0.0046
197.157	-0.003
197.541	0.0022
197.924	-0.0003
198.308	0.0023
198.692	-0.0001
199.075	-0.0004
199.459	-0.0071
199.843	-0.0072
200.226	-0.0094
200.61	-0.0046
200.993	-0.0044
201.376	0.0009
201.76	-0.0003
202.143	-0.0001
202.527	0.0005
202.91	-0.0006
203.293	-0.0042
203.676	-0.0048
204.059	-0.0035
204.443	-0.0007
204.826	0.0004
205.209	0.0008
205.592	0.0023
205.975	-0.0002
206.358	0.0022
206.741	0.0047
207.124	0.0091
207.507	0.0049
207.89	0.0023
208.273	-0.0003
208.655	-0.0004
209.038	-0.0025
209.421	-0.0033
209.804	-0.0013
210.186	-0.0007
210.569	0.0001
210.951	0
211.334	0.0015
211.717	0.0012
212.099	-0.0023
212.482	-0.0042
212.864	-0.005
213.246	-0.0017
213.629	0
214.011	0.0014
214.393	0.0008
214.776	-0.0012
215.158	-0.0049
215.54	-0.0051
215.922	-0.0018
216.305	0.0012
216.687	0.0022
217.069	-0.0003
217.451	-0.0009
217.833	-0.002
218.215	-0.0013
218.597	-0.0005
218.979	-0.0004
219.361	-0.0028
219.742	-0.0029
220.124	-0.0019
220.506	-0.0001
220.888	-0.0003
221.27	-0.0005
221.651	0.0013
222.033	0.0019
222.415	0.0016
222.796	0.0011
223.178	0.0009
223.559	0.002
223.941	0.0007
224.322	0.0001
224.704	-0.0018
225.085	-0.0017
225.466	-0.0029
225.848	-0.0018
226.229	-0.0012
226.61	0.0025
226.992	0.0014
227.373	0.0013
227.754	-0.002
228.135	-0.0009
228.516	-0.0006
228.897	-0.0004
229.278	0
229.659	-0.0008
230.04	-0.0004
230.421	-0.0007
230.802	-0.0013
231.183	-0.001
231.564	-0.0013
231.944	-0.0016
232.325	-0.0031
232.706	-0.0038
233.087	-0.0027
233.467	-0.0015
233.848	0.0002
234.229	0.0006
234.609	0.0004
234.99	-0.0013
235.37	-0.002
235.751	-0.002
236.131	-0.002
236.511	-0.0007
236.892	0.0009
237.272	0.0012
237.652	0.001
238.033	0.0005
238.413	0.0003
238.793	-0.0005
239.173	-0.0006
239.553	0.0003
239.933	0.0007
240.313	0.0006
240.694	-0.0015
241.074	-0.0026
241.453	-0.0037
241.833	-0.0018
242.213	-0.0009
242.593	-0.0013
242.973	-0.0007
243.353	-0.0017
243.732	-0.0013
244.112	-0.0013
244.492	-0.0013
244.872	-0.0007
245.251	-0.002
245.631	-0.0016
246.01	-0.0013
246.39	-0.0016
246.769	-0.0012
247.149	-0.0011
247.528	0.0006
247.908	0.0001
248.287	0.0008
248.666	-0.0007
249.045	-0.0006
249.425	-0.0028
249.804	-0.0037
250.183	-0.003
250.562	-0.002
250.941	-0.0008
251.32	-0.0011
251.699	-0.0006
252.078	-0.0007
252.457	-0.0016
252.836	-0.0022
253.215	-0.0024
253.594	-0.0014
253.973	-0.0009
254.352	-0.0011
254.731	-0.0013
255.109	-0.0029
255.488	-0.0029
255.867	-0.0018
256.245	-0.0012
256.624	-0.0006
257.002	-0.0026
257.381	-0.002
257.759	-0.0032
258.138	-0.0035
258.516	-0.0029
258.895	-0.0016
259.273	-0.0009
259.651	-0.0024
260.03	-0.0031
260.408	-0.0026
260.786	-0.002
261.164	-0.0014
261.542	-0.0024
261.921	-0.0028
262.299	-0.0019
262.677	-0.0015
263.055	-0.0013
263.433	-0.0028
263.811	-0.0025
264.188	-0.0029
264.566	-0.002
264.944	-0.0017
265.322	-0.0013
265.7	-0.0027
266.077	-0.0035
266.455	-0.0028
266.833	-0.0014
267.21	-0.0003
267.588	-0.0008
267.966	-0.001
268.343	-0.0019
268.721	-0.001
269.098	-0.0022
269.475	-0.0016
269.853	-0.0016
270.23	-0.0013
270.607	-0.0032
270.985	-0.0039
271.362	-0.0041
271.739	-0.0029
272.116	-0.0023
272.494	-0.0009
272.871	-0.0003
273.248	-0.0004
273.625	-0.0018
274.002	-0.0018
274.379	-0.0026
274.756	-0.0021
275.132	-0.0027
275.509	-0.0018
275.886	-0.0016
276.263	-0.0009
276.64	-0.001
277.016	-0.0014
277.393	-0.0014
277.77	-0.0033
278.146	-0.0032
278.523	-0.004
278.899	-0.0036
279.276	-0.0036
279.652	-0.004
280.029	-0.0036
280.405	-0.0044
280.782	-0.0038
281.158	-0.0034
281.534	-0.0046
281.91	-0.0042
282.287	-0.0042
282.663	-0.002
283.039	-0.0015
283.415	-0.0017
283.791	-0.0026
284.167	-0.0033
284.543	-0.0026
284.919	-0.003
285.295	-0.0027
285.671	-0.0031
286.047	-0.0028
286.423	-0.0037
286.799	-0.0035
287.174	-0.0039
287.55	-0.0047
287.926	-0.0056
288.301	-0.0044
288.677	-0.0026
289.053	-0.0012
289.428	-0.001
289.804	-0.0011
290.179	-0.0019
290.555	-0.0024
290.93	-0.0025
291.305	-0.0036
291.681	-0.0024
292.056	-0.0016
292.431	-0.0013
292.806	-0.002
293.182	-0.0025
293.557	-0.0023
293.932	-0.0026
294.307	-0.0028
294.682	-0.0013
295.057	-0.0009
295.432	-0.001
295.807	-0.0021
296.182	-0.0007
296.557	0.0002
296.932	-0
297.306	-0.001
297.681	-0.0016
298.056	-0.0005
298.43	-0.0016
298.805	-0.0035
299.18	-0.0047
299.554	-0.005
299.929	-0.0033
300.303	-0.0026
300.678	-0.004
301.052	-0.0027
301.427	-0.0032
301.801	-0.0006
302.175	-0.0021
302.55	-0.0026
302.924	-0.0041
303.298	-0.0043
303.672	-0.0014
304.046	-0.0008
304.421	0.0009
304.795	-0.0003
305.169	0.0005
305.543	-0.0016
305.917	-0.0022
306.291	-0.0022
306.664	-0.0008
307.038	-0.0005
307.412	-0.0009
307.786	-0.0021
308.16	-0.0017
308.533	-0.0008
308.907	-0.0005
309.281	-0.0002
309.654	-0.0013
310.028	-0.0009
310.401	-0.0017
310.775	-0.0023
311.148	-0.0032
311.522	-0.003
311.895	-0.002
312.268	-0.0004
312.642	-0.0018
313.015	-0.0019
313.388	-0.0033
313.761	-0.0017
314.135	-0.0014
314.508	-0.0006
314.881	-0.0015
315.254	-0.0021
315.627	-0.0022
316	-0.0016
316.373	-0.0019
316.746	-0.002
317.118	-0.0034
317.491	-0.003
317.864	-0.0014
318.237	-0.0009
318.61	-0.0018
318.982	-0.0029
319.355	-0.0038
319.727	-0.0023
320.1	-0.0026
320.473	-0.0026
320.845	-0.0027
321.218	-0.0038
321.59	-0.002
321.962	-0.0032
322.335	-0.0026
322.707	-0.0037
323.079	-0.0021
323.452	-0.0009
323.824	-0.0003
324.196	-0.0002
324.568	-0.0019
324.94	-0.0024
325.312	-0.0009
325.684	-0
326.056	-0
326.428	-0.0043
326.8	-0.0054
327.172	-0.0043
327.544	-0.0051
327.915	-0.0042
328.287	-0.0036
328.659	0.0001
329.031	0.0004
329.402	-0.0017
329.774	-0.0049
330.145	-0.007
330.517	-0.0068
330.888	-0.0056
331.26	-0.0046
331.631	-0.0045
332.003	-0.0034
332.374	-0.0031
332.745	-0.0017
333.117	-0.0026
333.488	-0.0025
333.859	-0.003
334.23	-0.0023
334.601	-0.0022
334.972	-0.0007
335.343	-0.0014
335.714	-0.0025
336.085	-0.0037
336.456	-0.0039
336.827	-0.0027
337.198	-0.0019
337.569	-0.0031
337.94	-0.0036
338.31	-0.0049
338.681	-0.004
339.052	-0.0042
339.422	-0.0039
339.793	-0.0032
340.164	-0.0037
340.534	-0.0038
340.905	-0.0053
341.275	-0.0034
341.645	-0.0038
342.016	-0.0018
342.386	-0.0026
342.756	-0.0014
343.127	-0.0031
343.497	-0.0044
343.867	-0.0056
344.237	-0.0044
344.607	-0.0046
344.977	-0.0051
345.347	-0.0033
345.717	-0.0034
346.087	-0.0029
346.457	-0.0033
346.827	-0.0015
347.197	0.0003
347.567	-0.0012
347.936	-0.0029
348.306	-0.0029
348.676	-0.0021
349.046	-0.0013
349.415	-0.003
349.785	-0.0033
350.154	-0.0049
350.524	-0.0032
350.893	-0.0035
351.263	-0.0005
351.632	-0.0019
352.001	-0.0031
352.371	-0.0037
352.74	-0.0049
353.109	-0.0052
353.478	-0.0056
353.847	-0.0044
354.217	-0.0018
354.586	-0.0028
354.955	-0.003
355.324	-0.0034
355.693	-0.0026
356.062	-0.0034
356.43	-0.0038
356.799	-0.0041
357.168	-0.0043
357.537	-0.0037
357.906	-0.002
358.274	-0.0013
358.643	-0.0038
359.011	-0.0054
359.38	-0.0072
359.749	-0.0057
360.117	-0.0039
360.486	-0.0012
360.854	-0.0018
361.222	-0.0038
361.591	-0.0049
361.959	-0.0058
362.327	-0.0062
362.695	-0.0064
363.064	-0.0044
363.432	-0.0037
363.8	-0.0036
364.168	-0.0042
364.536	-0.0036
364.904	-0.0048
365.272	-0.0046
365.64	-0.0055
366.008	-0.0023
366.376	-0.003
366.743	-0.0035
367.111	-0.0061
367.479	-0.0065
367.847	-0.0043
368.214	-0.0028
368.582	-0.001
368.949	-0.0009
369.317	-0.0018
369.684	-0.0043
370.052	-0.0056
370.419	-0.0055
370.787	-0.0021
371.154	-0.0017
371.521	-0.001
371.889	-0.0017
372.256	-0.0021
372.623	-0.0029
372.99	-0.0043
373.357	-0.0047
373.724	-0.004
374.091	-0.0027
374.458	-0.0039
374.825	-0.0041
375.192	-0.0067
375.559	-0.0063
375.926	-0.0072
376.293	-0.0053
376.659	-0.0043
377.026	-0.0052
377.393	-0.006
377.759	-0.0063
378.126	-0.0042
378.492	-0.0035
378.859	-0.005
379.225	-0.0061
379.592	-0.0053
379.958	-0.0044
380.325	-0.0061
380.691	-0.0065
381.057	-0.0063
381.423	-0.0048
381.79	-0.0064
382.156	-0.0082
382.522	-0.0081
382.888	-0.006
383.254	-0.0028
383.62	-0.0015
383.986	-0.0019
384.352	-0.0035
384.718	-0.0041
385.084	-0.0049
385.449	-0.0059
385.815	-0.0058
386.181	-0.0046
386.547	-0.0039
386.912	-0.0048
387.278	-0.0055
387.643	-0.0068
388.009	-0.0051
388.374	-0.005
388.74	-0.0016
389.105	-0.0017
389.471	-0.0012
389.836	-0.002
390.201	-0.0031
390.566	-0.0041
390.932	-0.0058
391.297	-0.0062
391.662	-0.0062
392.027	-0.0057
392.392	-0.0061
392.757	-0.0063
393.122	-0.0051
393.487	-0.0035
393.852	-0.0027
394.217	-0.0038
394.582	-0.0033
394.946	-0.004
395.311	-0.0048
395.676	-0.0066
396.04	-0.006
396.405	-0.0042
396.77	-0.0024
397.134	-0.0049
397.499	-0.0049
397.863	-0.0052
398.227	-0.0018
398.592	-0.0041
398.956	-0.0035
399.32	-0.0057
399.685	-0.0042
400.049	-0.0037
400.413	-0.0039
400.777	-0.0045
401.141	-0.0066
401.505	-0.0059
401.869	-0.0053
402.233	-0.005
402.597	-0.0059
402.961	-0.0083
403.325	-0.0069
403.689	-0.0059
404.053	-0.003
404.416	-0.0039
404.78	-0.0028
405.144	-0.0039
405.507	-0.0027
405.871	-0.0042
406.234	-0.0051
406.598	-0.0064
406.961	-0.007
407.325	-0.0053
407.688	-0.0057
408.051	-0.0051
408.415	-0.0042
408.778	-0.004
409.141	-0.0035
409.504	-0.0042
409.867	-0.0063
410.23	-0.0068
410.593	-0.0057
410.956	-0.0037
411.319	-0.0028
411.682	-0.007
412.045	-0.007
412.408	-0.0069
412.771	-0.0015
413.134	-0.0013
413.496	-0.0035
413.859	-0.0054
414.222	-0.0052
414.584	-0.0027
414.947	-0.0033
415.309	-0.0038
415.672	-0.0018
416.034	-0.0031
416.396	-0.0041
416.759	-0.0055
417.121	-0.0042
417.483	-0.0038
417.846	-0.006
418.208	-0.0071
418.57	-0.0066
418.932	-0.0084
419.294	-0.007
419.656	-0.0056
420.018	-0.0038
420.38	-0.0034
420.742	-0.0058
421.104	-0.0039
421.466	-0.0049
421.827	-0.0039
422.189	-0.0059
422.551	-0.0075
422.912	-0.0076
423.274	-0.0059
423.636	-0.0034
423.997	-0.0023
424.359	-0.0033
424.72	-0.0037
425.081	-0.0027
425.443	-0.0026
425.804	-0.0022
426.165	-0.0031
426.527	-0.0039
426.888	-0.0048
427.249	-0.0055
427.61	-0.0041
427.971	-0.003
428.332	-0.0034
428.693	-0.0018
429.054	-0.0021
429.415	-0.0019
429.776	-0.0059
430.137	-0.0079
430.498	-0.0068
430.858	-0.0038
431.219	-0.0031
431.58	-0.002
431.94	-0.0031
432.301	-0.0032
432.661	-0.0065
433.022	-0.0068
433.382	-0.0066
433.743	-0.0049
434.103	-0.0038
434.463	-0.0032
434.824	-0.0036
435.184	-0.0029
435.544	-0.0005
435.904	0.0009
436.264	-0.0008
436.624	-0.0024
436.985	-0.0032
437.345	-0.0013
437.704	-0.0028
438.064	-0.0032
438.424	-0.0065
438.784	-0.0046
439.144	-0.0062
439.504	-0.0047
439.863	-0.0069
440.223	-0.0051
440.583	-0.0055
440.942	-0.0038
441.302	-0.0043
441.661	-0.0043
442.021	-0.003
442.38	-0.0041
442.739	-0.0045
443.099	-0.0088
443.458	-0.0056
443.817	-0.0055
444.176	-0.0036
444.536	-0.0039
444.895	-0.0014
445.254	-0.001
445.613	-0.001
445.972	-0.0033
446.331	-0.0032
446.69	-0.0063
447.049	-0.0085
447.407	-0.0087
447.766	-0.006
448.125	-0.0017
448.484	-0.0023
448.842	-0.0032
449.201	-0.0061
449.559	-0.0078
449.918	-0.0062
450.276	-0.0039
450.635	-0.0022
450.993	-0.0016
451.352	-0.0026
451.71	-0.0006
452.068	-0.0045
452.426	-0.0029
452.785	-0.0043
453.143	-0.0017
453.501	-0.0029
453.859	-0.0058
454.217	-0.0069
454.575	-0.0097
454.933	-0.0082
455.291	-0.0074
455.649	-0.0055
456.006	-0.0043
456.364	-0.0036
456.722	-0.0021
457.079	-0.0027
457.437	-0.0022
457.795	-0.0027
458.152	-0.0012
458.51	-0.0018
458.867	-0.0029
459.225	-0.0037
459.582	-0.0063
459.939	-0.0062
460.297	-0.0078
460.654	-0.0061
461.011	-0.0068
461.368	-0.0043
461.725	-0.0055
462.082	-0.003
462.44	-0.0061
462.797	-0.0059
463.153	-0.0057
463.51	-0.0045
463.867	-0.0023
464.224	-0.0017
464.581	-0.0002
464.938	0.0007
465.294	-0.0007
465.651	0.0016
466.008	-0.0033
466.364	-0.0025
466.721	-0.0069
467.077	-0.0075
467.434	-0.0083
467.79	-0.006
468.146	-0.0043
468.503	-0.0062
468.859	-0.0068
469.215	-0.0051
469.571	-0.0032
469.927	-0.0019
470.284	-0.0038
470.64	-0.0049
470.996	-0.0059
471.352	-0.0056
471.707	-0.0053
472.063	-0.0028
472.419	-0.0011
472.775	0.0009
473.131	0.0024
473.486	-0.0011
473.842	-0.0042
474.198	-0.0075
474.553	-0.0056
474.909	-0.003
475.264	-0.0035
475.62	-0.002
475.975	-0.003
476.331	-0.0044
476.686	-0.0031
477.041	-0.0027
477.396	-0.0027
477.752	-0.0053
478.107	-0.0061
478.462	-0.006
478.817	-0.0058
479.172	-0.0044
479.527	-0.0047
479.882	-0.0032
480.237	-0.0058
480.591	-0.0051
480.946	-0.0046
481.301	-0.0029
481.656	-0.0022
482.01	-0.0032
482.365	-0.0018
482.72	-0.001
483.074	-0.0033
483.429	-0.0063
483.783	-0.0056
484.137	-0.0043
484.492	-0.0035
484.846	-0.0049
485.2	-0.0039
485.555	-0.0021
485.909	-0.0039
486.263	-0.0041
486.617	-0.0061
486.971	-0.0049
487.325	-0.0062
487.679	-0.0057
488.033	-0.0053
488.387	-0.0052
488.741	-0.0081
489.094	-0.0081
489.448	-0.0088
489.802	-0.0064
490.156	-0.0066
490.509	-0.0032
490.863	-0.0023
491.216	-0.0028
491.57	-0.0055
491.923	-0.0065
492.277	-0.0064
492.63	-0.0055
492.983	-0.0053
493.337	-0.0034
493.69	-0.004
494.043	-0.0055
494.396	-0.0083
494.749	-0.0074
495.102	-0.007
495.455	-0.0066
495.808	-0.0065
496.161	-0.0061
496.514	-0.0051
496.867	-0.0058
497.22	-0.005
497.572	-0.0051
497.925	-0.0021
498.278	-0.0022
498.63	-0.003
498.983	-0.0071
499.335	-0.0076
499.688	-0.0062
500.04	-0.0061
500.393	-0.0068
500.745	-0.0072
501.097	-0.0066
501.449	-0.005
501.802	-0.0064
502.154	-0.0057
502.506	-0.005
502.858	-0.0034
503.21	-0.0019
503.562	-0.0034
503.914	-0.0051
504.266	-0.0052
504.618	-0.0056
504.969	-0.0039
505.321	-0.0053
505.673	-0.0049
506.025	-0.0058
506.376	-0.008
506.728	-0.0065
507.079	-0.0044
507.431	-0.004
507.782	-0.0048
508.134	-0.0075
508.485	-0.0043
508.836	-0.0035
509.188	-0.0032
509.539	-0.0063
509.89	-0.0045
510.241	-0.0042
510.592	-0.0041
510.943	-0.0069
511.294	-0.005
511.645	-0.0032
511.996	-0.0016
512.347	-0.0025
512.698	-0.0042
513.049	-0.0036
513.399	-0.0045
513.75	-0.0031
514.101	-0.0052
514.451	-0.005
514.802	-0.0071
515.152	-0.0092
515.503	-0.0076
515.853	-0.0052
516.203	-0.0048
516.554	-0.0048
516.904	-0.0056
517.254	-0.004
517.604	-0.0056
517.955	-0.0058
518.305	-0.0082
518.655	-0.0089
519.005	-0.009
519.355	-0.0076
519.705	-0.0106
520.055	-0.0125
520.404	-0.0124
520.754	-0.0095
521.104	-0.0089
521.454	-0.0093
521.803	-0.0081
522.153	-0.0069
522.502	-0.007
522.852	-0.0057
523.201	-0.0055
523.551	-0.0052
523.9	-0.0089
524.249	-0.0084
524.599	-0.0057
524.948	-0.0029
525.297	-0.005
525.646	-0.01
525.995	-0.009
526.344	-0.0074
526.694	-0.0035
527.042	-0.0055
527.391	-0.0088
527.74	-0.0106
528.089	-0.0095
528.438	-0.006
528.787	-0.0061
529.135	-0.0095
529.484	-0.012
529.833	-0.0093
530.181	-0.0092
530.53	-0.0073
530.878	-0.0104
531.227	-0.0081
531.575	-0.0081
531.923	-0.0063
532.271	-0.0064
532.62	-0.006
532.968	-0.0081
533.316	-0.0095
533.664	-0.0071
534.012	-0.005
534.36	-0.0038
534.708	-0.007
535.056	-0.0079
535.404	-0.0073
535.752	-0.0053
536.1	-0.0058
536.447	-0.0077
536.795	-0.0105
537.143	-0.0116
537.49	-0.0099
537.838	-0.009
538.185	-0.0054
538.533	-0.005
538.88	-0.0058
539.228	-0.0064
539.575	-0.0093
539.922	-0.0072
540.269	-0.0096
540.617	-0.0055
540.964	-0.0088
541.311	-0.0092
541.658	-0.0108
542.005	-0.0091
542.352	-0.0068
542.699	-0.0086
543.045	-0.0102
543.392	-0.0114
543.739	-0.0105
544.086	-0.0121
544.432	-0.0118
544.779	-0.0129
545.126	-0.0093
545.472	-0.0119
545.819	-0.0082
546.165	-0.0091
546.512	-0.0068
546.858	-0.0116
547.204	-0.0113
547.55	-0.0116
547.897	-0.0078
548.243	-0.0065
548.589	-0.0049
548.935	-0.0083
549.281	-0.009
549.627	-0.0111
549.973	-0.0092
550.319	-0.0087
550.665	-0.0086
551.01	-0.009
551.356	-0.0084
551.702	-0.0076
552.048	-0.0041
552.393	-0.0062
552.739	-0.009
553.084	-0.0125
553.43	-0.0116
553.775	-0.0095
554.12	-0.0098
554.466	-0.0118
554.811	-0.0122
555.156	-0.0116
555.502	-0.0099
555.847	-0.0068
556.192	-0.0063
556.537	-0.0077
556.882	-0.0111
557.227	-0.0111
557.572	-0.0105
557.917	-0.0085
558.261	-0.0078
558.606	-0.0061
558.951	-0.0086
559.295	-0.0086
559.64	-0.0094
559.985	-0.0051
560.329	-0.0047
560.674	-0.004
561.018	-0.0054
561.363	-0.0066
561.707	-0.0077
562.051	-0.0096
562.395	-0.0126
562.74	-0.0135
563.084	-0.0104
563.428	-0.0079
563.772	-0.0067
564.116	-0.0091
564.46	-0.0092
564.804	-0.0116
565.148	-0.0124
565.492	-0.0143
565.835	-0.0122
566.179	-0.0102
566.523	-0.0102
566.866	-0.0086
567.21	-0.0077
567.554	-0.0052
567.897	-0.0051
568.24	-0.0059
568.584	-0.0059
568.927	-0.0088
569.271	-0.0101
569.614	-0.011
569.957	-0.0099
570.3	-0.0082
570.643	-0.0084
570.986	-0.0086
571.329	-0.0076
571.672	-0.0067
572.015	-0.0079
572.358	-0.0065
572.701	-0.0082
573.044	-0.0102
573.387	-0.0125
573.729	-0.0138
574.072	-0.0113
574.414	-0.0133
574.757	-0.0113
575.099	-0.0089
575.442	-0.0079
575.784	-0.0078
576.127	-0.0109
576.469	-0.0112
576.811	-0.0112
577.153	-0.0124
577.496	-0.0135
577.838	-0.0144
578.18	-0.013
578.522	-0.0125
578.864	-0.0129
579.206	-0.0148
579.548	-0.0146
579.889	-0.0135
580.231	-0.0135
580.573	-0.0146
580.915	-0.0158
581.256	-0.0137
581.598	-0.0115
581.939	-0.0097
582.281	-0.011
582.622	-0.0099
582.964	-0.0081
583.305	-0.0087
583.646	-0.0091
583.988	-0.0158
584.329	-0.0153
584.67	-0.0156
585.011	-0.0124
585.352	-0.0099
585.693	-0.0098
586.034	-0.0082
586.375	-0.0091
586.716	-0.0095
587.057	-0.0086
587.398	-0.0142
587.738	-0.0156
588.079	-0.0147
588.42	-0.0106
588.76	-0.0086
589.101	-0.0085
589.441	-0.0099
589.782	-0.0102
590.122	-0.0118
590.463	-0.0113
590.803	-0.0101
591.143	-0.0086
591.483	-0.0087
591.823	-0.0098
592.164	-0.0117
592.504	-0.0128
592.844	-0.0126
593.184	-0.0115
593.523	-0.0084
593.863	-0.006
594.203	-0.0056
594.543	-0.0088
594.883	-0.0107
595.222	-0.013
595.562	-0.0166
595.901	-0.0172
596.241	-0.0167
596.58	-0.0134
596.92	-0.0107
597.259	-0.0075
597.599	-0.0064
597.938	-0.0108
598.277	-0.0106
598.616	-0.0104
598.955	-0.0089
599.295	-0.0122
599.634	-0.0135
599.973	-0.0165
600.312	-0.0177
600.65	-0.0154
600.989	-0.01
601.328	-0.007
601.667	-0.0112
602.005	-0.0128
602.344	-0.0132
602.683	-0.013
603.021	-0.014
603.36	-0.0128
603.698	-0.0107
604.037	-0.0112
604.375	-0.0122
604.713	-0.0132
605.052	-0.0142
605.39	-0.0144
605.728	-0.013
606.066	-0.0133
606.404	-0.0157
606.742	-0.0165
607.08	-0.0158
607.418	-0.0139
607.756	-0.0135
608.094	-0.0143
608.431	-0.0131
608.769	-0.015
609.107	-0.013
609.444	-0.0163
609.782	-0.015
610.12	-0.0153
610.457	-0.0147
610.794	-0.0127
611.132	-0.0129
611.469	-0.012
611.806	-0.0119
612.144	-0.0087
612.481	-0.009
612.818	-0.0103
613.155	-0.0102
613.492	-0.0078
613.829	-0.0085
614.166	-0.0118
614.503	-0.0119
614.84	-0.0108
615.176	-0.0118
615.513	-0.0138
615.85	-0.0158
616.187	-0.0126
616.523	-0.0113
616.86	-0.0129
617.196	-0.0171
617.533	-0.0188
617.869	-0.0141
618.205	-0.0112
618.542	-0.0092
618.878	-0.0093
619.214	-0.0123
619.55	-0.0132
619.886	-0.0148
620.222	-0.0144
620.558	-0.0143
620.894	-0.0115
621.23	-0.0078
621.566	-0.0086
621.902	-0.011
622.238	-0.0129
622.573	-0.0089
622.909	-0.01
623.244	-0.0101
623.58	-0.0145
623.916	-0.0153
624.251	-0.015
624.586	-0.0162
624.922	-0.0174
625.257	-0.0161
625.592	-0.0151
625.927	-0.0099
626.263	-0.0107
626.598	-0.0079
626.933	-0.012
627.268	-0.012
627.603	-0.0135
627.938	-0.0139
628.272	-0.0159
628.607	-0.0189
628.942	-0.0191
629.277	-0.0153
629.611	-0.0135
629.946	-0.0108
630.281	-0.0113
630.615	-0.0112
630.949	-0.0109
631.284	-0.0136
631.618	-0.0135
631.953	-0.014
632.287	-0.0111
632.621	-0.0083
632.955	-0.0069
633.289	-0.0082
633.623	-0.0079
633.957	-0.0095
634.291	-0.0125
634.625	-0.0132
634.959	-0.0142
635.293	-0.0136
635.627	-0.0167
635.96	-0.016
636.294	-0.0151
636.627	-0.0135
636.961	-0.0137
637.294	-0.0164
637.628	-0.0182
637.961	-0.018
638.295	-0.0172
638.628	-0.0175
638.961	-0.0208
639.294	-0.0162
639.628	-0.0112
639.961	-0.0066
640.294	-0.0094
640.627	-0.018
640.96	-0.0202
641.293	-0.0164
641.625	-0.0132
641.958	-0.0093
642.291	-0.0055
642.624	-0.0034
642.956	-0.0086
643.289	-0.0115
643.621	-0.0153
643.954	-0.021
644.286	-0.0286
644.619	-0.0254
644.951	-0.016
645.283	-0.0106
645.616	-0.0115
645.948	-0.0122
646.28	-0.0117
646.612	-0.0093
646.944	-0.0059
647.276	-0.0061
647.608	-0.0104
647.94	-0.013
648.272	-0.0107
648.603	-0.0055
648.935	-0.005
649.267	-0.0054
649.598	-0.006
649.93	-0.0084
650.261	-0.0108
650.593	-0.011
650.924	-0.0091
651.256	-0.0077
651.587	-0.0099
651.918	-0.0112
652.25	-0.0138
652.581	-0.0147
652.912	-0.0143
653.243	-0.0134
653.574	-0.0124
653.905	-0.016
654.236	-0.0182
654.567	-0.0165
654.897	-0.0136
655.228	-0.0085
655.559	-0.0107
655.89	-0.0103
656.22	-0.0105
656.551	-0.0061
656.881	-0.0057
657.212	-0.0111
657.542	-0.0137
657.872	-0.0163
658.203	-0.0133
658.533	-0.0269
658.863	-0.026
659.193	-0.0193
659.523	-0.0138
659.853	-0.0051
660.183	-0.011
660.513	-0.0144
660.843	-0.0125
661.173	-0.0115
661.503	-0.0109
661.833	-0.0082
662.162	-0.0066
662.492	-0.0071
662.822	-0.0138
663.151	-0.0188
663.481	-0.0221
663.81	-0.0238
664.139	-0.0159
664.469	-0.0151
664.798	-0.0065
665.127	-0.009
665.456	-0.0056
665.785	-0.0065
666.114	-0.0086
666.443	-0.0085
666.772	-0.0121
667.101	-0.0109
667.43	-0.0103
667.759	-0.0067
668.088	-0.0082
668.416	-0.0129
668.745	-0.0165
669.074	-0.0187
669.402	-0.0209
669.731	-0.0204
670.059	-0.0185
670.388	-0.0104
670.716	-0.009
671.044	-0.0056
671.372	-0.0061
671.701	-0.0097
672.029	-0.0115
672.357	-0.0138
672.685	-0.011
673.013	-0.0121
673.341	-0.0097
673.669	-0.0138
673.996	-0.01
674.324	-0.0153
674.652	-0.0119
674.98	-0.013
675.307	-0.0097
675.635	-0.0109
675.962	-0.0107
676.29	-0.0089
676.617	-0.0066
676.945	-0.0086
677.272	-0.0111
677.599	-0.0108
677.926	-0.01
678.253	-0.0118
678.581	-0.0119
678.908	-0.0144
679.235	-0.0129
679.561	-0.0135
679.888	-0.0088
680.215	-0.0087
680.542	-0.0092
680.869	-0.0128
681.195	-0.0093
681.522	-0.0094
681.849	-0.0133
682.175	-0.0189
682.502	-0.0166
682.828	-0.012
683.154	-0.0127
683.481	-0.0149
683.807	-0.0172
684.133	-0.0134
684.459	-0.0125
684.785	-0.0106
685.111	-0.016
685.437	-0.016
685.763	-0.0166
686.089	-0.0155
686.415	-0.0208
686.741	-0.0199
687.067	-0.0177
687.392	-0.0146
687.718	-0.0162
688.043	-0.0146
688.369	-0.0131
688.694	-0.0104
689.02	-0.0115
689.345	-0.0102
689.67	-0.0124
689.996	-0.0109
690.321	-0.0113
690.646	-0.0118
690.971	-0.0167
691.296	-0.0164
691.621	-0.0161
691.946	-0.0073
692.271	-0.0099
692.596	-0.0077
692.921	-0.0072
693.245	-0.0021
693.57	-0.0044
693.895	-0.0078
694.219	-0.0098
694.544	-0.0083
694.868	-0.009
695.193	-0.0094
695.517	-0.0101
695.841	-0.0125
696.166	-0.0122
696.49	-0.0159
696.814	-0.0124
697.138	-0.0171
697.462	-0.014
697.786	-0.0145
698.11	-0.017
698.434	-0.0184
698.758	-0.0224
699.081	-0.02
699.405	-0.0179
699.729	-0.0136
700.052	-0.0146
700.376	-0.0127
700.7	-0.012
701.023	-0.0092
701.346	-0.0132
701.67	-0.0127
701.993	-0.0167
702.316	-0.0142
702.639	-0.0168
702.963	-0.018
703.286	-0.0187
703.609	-0.021
703.932	-0.0217
704.255	-0.0202
704.578	-0.0163
704.9	-0.0101
705.223	-0.0098
705.546	-0.0111
705.868	-0.0102
706.191	-0.0141
706.514	-0.0147
706.836	-0.0173
707.159	-0.0128
707.481	-0.0101
707.803	-0.0108
708.126	-0.0131
708.448	-0.0151
708.77	-0.0143
709.092	-0.0127
709.414	-0.0117
709.736	-0.0104
710.058	-0.0151
710.38	-0.0163
710.702	-0.0167
711.024	-0.0142
711.345	-0.0136
711.667	-0.0147
711.989	-0.0114
712.31	-0.007
712.632	-0.0092
712.953	-0.0093
713.275	-0.011
713.596	-0.0046
713.917	-0.0058
714.239	-0.0122
714.56	-0.0139
714.881	-0.0125
715.202	-0.0149
715.523	-0.0167
715.844	-0.0148
716.165	-0.0121
716.486	-0.0127
716.807	-0.0156
717.128	-0.0143
717.448	-0.0141
717.769	-0.0132
718.09	-0.0091
718.41	-0.0088
718.731	-0.0085
719.051	-0.0091
719.372	-0.0026
719.692	-0.0038
720.012	-0.0058
720.332	-0.0133
720.653	-0.0123
720.973	-0.0119
721.293	-0.0118
721.613	-0.0105
721.933	-0.01
722.253	-0.0103
722.573	-0.0129
722.892	-0.0177
723.212	-0.0192
723.532	-0.0248
723.851	-0.0236
724.171	-0.0221
724.491	-0.0205
724.81	-0.0207
725.129	-0.0162
725.449	-0.0115
725.768	-0.0101
726.087	-0.0123
726.407	-0.0124
726.726	-0.0119
727.045	-0.0092
727.364	-0.0133
727.683	-0.0104
728.002	-0.0142
728.321	-0.0115
728.64	-0.0106
728.958	-0.0088
729.277	-0.0089
729.596	-0.0098
729.914	-0.0114
730.233	-0.0097
730.551	-0.0111
730.87	-0.0127
731.188	-0.0133
731.507	-0.0136
731.825	-0.0128
732.143	-0.0171
732.461	-0.0146
732.779	-0.0128
733.097	-0.0147
733.415	-0.0173
733.733	-0.021
734.051	-0.0158
734.369	-0.0171
734.687	-0.0159
735.005	-0.0164
735.322	-0.0117
735.64	-0.013
735.957	-0.011
736.275	-0.0135
736.592	-0.0093
736.91	-0.0107
737.227	-0.0119
737.544	-0.0151
737.862	-0.0121
738.179	-0.0123
738.496	-0.008
738.813	-0.0152
739.13	-0.0148
739.447	-0.0156
739.764	-0.0185
740.081	-0.0205
740.398	-0.0236
740.714	-0.0148
741.031	-0.0133
741.348	-0.0135
741.664	-0.0162
741.981	-0.0166
742.297	-0.0106
742.614	-0.0082
742.93	-0.0049
743.246	-0.0063
743.563	-0.0107
743.879	-0.018
744.195	-0.0194
744.511	-0.0246
744.827	-0.0196
745.143	-0.0202
745.459	-0.0145
745.775	-0.0125
746.091	-0.0155
746.406	-0.0121
746.722	-0.0131
747.038	-0.0135
747.353	-0.0149
747.669	-0.0181
747.984	-0.0159
748.3	-0.0152
748.615	-0.0179
748.93	-0.0192
749.246	-0.0213
749.561	-0.0169
749.876	-0.018
750.191	-0.0224
750.506	-0.0205
750.821	-0.0146
751.136	-0.0092
751.451	-0.0076
751.766	-0.0131
752.08	-0.0194
752.395	-0.022
752.71	-0.0182
753.024	-0.0116
753.339	-0.0113
753.653	-0.0116
753.968	-0.0142
754.282	-0.0155
754.596	-0.012
754.911	-0.0133
755.225	-0.0112
755.539	-0.0182
755.853	-0.0136
756.167	-0.0161
756.481	-0.015
756.795	-0.0176
757.109	-0.0155
757.423	-0.0172
757.736	-0.0161
758.05	-0.019
758.364	-0.0135
758.677	-0.016
758.991	-0.015
759.304	-0.0209
759.618	-0.0189
759.931	-0.0178
760.244	-0.014
760.558	-0.0126
760.871	-0.015
761.184	-0.0165
761.497	-0.0144
761.81	-0.0133
762.123	-0.0169
762.436	-0.0219
762.749	-0.0197
763.062	-0.0145
763.374	-0.0161
763.687	-0.0172
764	-0.0186
764.312	-0.0122
764.625	-0.0092
764.937	-0.0102
765.25	-0.0132
765.562	-0.0136
765.874	-0.0081
766.186	-0.0114
766.499	-0.014
766.811	-0.0189
767.123	-0.0192
767.435	-0.0169
767.747	-0.0157
768.059	-0.013
768.37	-0.0153
768.682	-0.0123
768.994	-0.0159
769.306	-0.0172
769.617	-0.0225
769.929	-0.0163
770.24	-0.011
770.552	-0.0135
770.863	-0.0197
771.174	-0.0209
771.486	-0.0176
771.797	-0.0162
772.108	-0.0175
772.419	-0.0165
772.73	-0.0193
773.041	-0.0181
773.352	-0.0177
773.663	-0.0144
773.974	-0.0124
774.285	-0.0151
774.595	-0.0156
774.906	-0.016
775.217	-0.0118
775.527	-0.01
775.838	-0.0094
776.148	-0.0113
776.458	-0.0108
776.769	-0.0123
777.079	-0.0143
777.389	-0.0188
777.699	-0.0186
778.009	-0.0186
778.319	-0.014
778.629	-0.0122
778.939	-0.0096
779.249	-0.0084
779.559	-0.0093
779.869	-0.0113
780.178	-0.0174
780.488	-0.0206
780.798	-0.018
781.107	-0.0131
781.417	-0.015
781.726	-0.0161
782.035	-0.0198
782.345	-0.0105
782.654	-0.0135
782.963	-0.009
783.272	-0.0143
783.581	-0.0129
783.89	-0.0142
784.199	-0.0157
784.508	-0.0181
784.817	-0.0233
785.126	-0.0244
785.434	-0.0205
785.743	-0.0128
786.052	-0.0134
786.36	-0.0166
786.669	-0.0192
786.977	-0.0182
787.285	-0.0154
787.594	-0.014
787.902	-0.016
788.21	-0.0204
788.518	-0.0232
788.826	-0.0194
789.135	-0.0146
789.442	-0.0145
789.75	-0.0113
790.058	-0.0137
790.366	-0.0138
790.674	-0.0207
790.981	-0.0191
791.289	-0.0172
791.597	-0.0164
791.904	-0.018
792.212	-0.0216
792.519	-0.0218
792.826	-0.0166
793.134	-0.012
793.441	-0.0077
793.748	-0.0076
794.055	-0.005
794.362	-0.0107
794.669	-0.0141
794.976	-0.0158
795.283	-0.0146
795.59	-0.0134
795.897	-0.0132
796.203	-0.015
796.51	-0.0203
796.817	-0.0225
797.123	-0.0172
797.43	-0.0106
797.736	-0.0127
798.042	-0.0154
798.349	-0.0176
798.655	-0.0125
798.961	-0.0137
799.267	-0.0149
799.573	-0.0176
799.879	-0.021
800.185	-0.0197
800.491	-0.0194
800.797	-0.0158
801.103	-0.0206
801.408	-0.0184
801.714	-0.0159
802.02	-0.0131
802.325	-0.0135
802.631	-0.0237
802.936	-0.0272
803.242	-0.0321
803.547	-0.0253
803.852	-0.0238
804.157	-0.024
804.462	-0.0213
804.768	-0.0222
805.073	-0.0152
805.378	-0.0117
805.682	-0.0128
805.987	-0.016
806.292	-0.0199
806.597	-0.0095
806.902	-0.0105
807.206	-0.0129
807.511	-0.0189
807.815	-0.0183
808.12	-0.0168
808.424	-0.0135
808.728	-0.0129
809.033	-0.0118
809.337	-0.0179
809.641	-0.0172
809.945	-0.0189
810.249	-0.018
810.553	-0.0166
810.857	-0.016
811.161	-0.0134
811.465	-0.0155
811.768	-0.018
812.072	-0.0181
812.376	-0.0179
812.679	-0.0227
812.983	-0.019
813.286	-0.0202
813.59	-0.0136
813.893	-0.0133
814.196	-0.0087
814.499	-0.0082
814.803	-0.0127
815.106	-0.018
815.409	-0.0169
815.712	-0.0173
816.015	-0.021
816.318	-0.0219
816.62	-0.0208
816.923	-0.0151
817.226	-0.0167
817.528	-0.0138
817.831	-0.0193
818.133	-0.0116
818.436	-0.0143
818.738	-0.0036
819.041	-0.007
819.343	-0.0063
819.645	-0.0132
819.947	-0.0104
820.249	-0.0083
820.551	-0.0041
820.853	-0.0086
821.155	-0.0186
821.457	-0.015
821.759	-0.0128
822.061	-0.0068
822.362	-0.009
822.664	-0.0182
822.966	-0.0104
823.267	-0.0179
823.569	-0.0138
823.87	-0.0289
824.171	-0.0302
824.473	-0.033
824.774	-0.0239
825.075	-0.0123
825.376	-0.0009
825.677	0.003
825.978	-0.0029
826.279	-0.0132
826.58	-0.0163
826.881	-0.0147
827.181	-0.0049
827.482	-0.0074
827.783	-0.0122
828.083	-0.0209
828.384	-0.0275
828.684	-0.0279
828.985	-0.0253
829.285	-0.0235
829.585	-0.0251
829.885	-0.0241
830.185	-0.0256
830.486	-0.0185
830.786	-0.0145
831.086	-0.0036
831.385	-0.005
831.685	-0.0077
831.985	-0.0119
832.285	-0.0136
832.585	-0.0127
832.884	-0.0092
833.184	-0.0112
833.483	-0.0156
833.783	-0.0195
834.082	-0.0208
834.381	-0.0279
834.681	-0.0243
834.98	-0.0254
835.279	-0.019
835.578	-0.0213
835.877	-0.0228
836.176	-0.0141
836.475	-0.0084
836.774	-0.0075
837.072	-0.0172
837.371	-0.0162
837.67	-0.0114
837.968	-0.0119
838.267	-0.0201
838.565	-0.0176
838.864	-0.0141
839.162	-0.0228
839.46	-0.0392
839.759	-0.0388
840.057	-0.0263
840.355	-0.0149
840.653	-0.0079
840.951	-0.0108
841.249	-0.0041
841.547	-0.0059
841.845	-0.0064
842.142	-0.0083
842.44	-0.0171
842.738	-0.0199
843.035	-0.0225
843.333	-0.0195
843.63	-0.0137
843.928	-0.0047
844.225	0.0009
844.522	0.0003
844.82	-0.0084
845.117	-0.0085
845.414	-0.0123
845.711	-0.0097
846.008	-0.0167
846.305	-0.019
846.602	-0.0301
846.898	-0.0235
847.195	-0.0298
847.492	-0.0217
847.788	-0.0295
848.085	-0.0149
848.382	-0.0131
848.678	-0.0174
848.974	-0.0302
849.271	-0.0226
849.567	-0.013
849.863	-0.0076
850.159	-0.0218
850.455	-0.0291
850.751	-0.0263
851.047	-0.0183
851.343	-0.0135
851.639	-0.0118
851.935	-0.0181
852.23	-0.0226
852.526	-0.0247
852.822	-0.0221
853.117	-0.0212
853.413	-0.0113
853.708	-0.0196
854.003	-0.0018
854.299	-0.0075
854.594	-0.0005
854.889	-0.0113
855.184	-0.0133
855.479	-0.0063
855.774	0.0047
856.069	-0.0085
856.364	-0.0116
856.659	-0.0218
856.954	0.0008
857.248	-0.0027
857.543	-0.0015
857.837	-0.011
858.132	-0.0114
858.426	-0.0177
858.721	-0.0225
859.015	-0.0333
859.309	-0.0364
859.604	-0.0265
859.898	-0.0019
860.192	0.0052
860.486	-0.0089
860.78	-0.0215
861.074	-0.0182
861.367	-0.0047
861.661	-0.004
861.955	-0.011
862.248	-0.0101
862.542	-0.0243
862.836	-0.0162
863.129	-0.0281
863.422	-0.0228
863.716	-0.0364
864.009	-0.0263
864.302	-0.0401
864.595	-0.0528
864.889	-0.0671
865.182	-0.0435
865.475	-0.0427
865.767	-0.0445
866.06	-0.058
866.353	-0.0368
866.646	-0.0122
866.938	0.0012
867.231	0.0007
867.524	0.003
867.816	0.0155
868.109	0.0268
868.401	0.0084
868.693	-0.011
868.985	-0.0293
869.278	-0.0271
869.57	-0.0226
869.862	-0.0323
870.154	-0.0204
870.446	-0.0235
870.738	-0.0212
871.029	-0.0403
871.321	-0.0228
871.613	-0.0108
871.904	-0.0073
872.196	-0.0258
872.487	-0.0333
872.779	-0.0178
873.07	-0.0026
873.362	0.0246
873.653	0.0358
873.944	0.0167
874.235	-0.0149
874.526	-0.0331
874.817	-0.0267
875.108	-0.0019
875.399	-0.0036
875.69	0.0312
875.981	0.0103
876.271	0.0243
876.562	-0.0137
876.853	-0.0065
877.143	-0.0215
877.434	-0.0025
877.724	-0.0203
878.014	0.0065
878.305	-0.0079
878.595	0.0123
878.885	-0.0187
879.175	-0.0237
879.465	-0.0472
879.755	-0.0375
880.045	-0.0301
880.335	-0.0197
880.624	-0.0287
880.914	-0.0287
