Data from DIblank2_081117_1b_Absorbance_11-12-21-069.txt Node
Date: Fri Aug 11 11:12:21 MDT 2017
User: Tank Lab
Spectrometer: FLMS01220
Trigger mode: 0
Integration Time (sec): 1.000000E-1
Scans to average: 10
Electric dark correction enabled: true
Nonlinearity correction enabled: false
Boxcar width: 1
XAxis mode: Wavelengths
Number of Pixels in Spectrum: 2048
>>>>>Begin Spectral Data<<<<<
179.47	-0.0969
179.856	-0.0969
180.241	-0.3024
180.626	-0.6748
181.011	-0
181.396	0.1056
181.781	-0.182
182.166	-0.0757
182.551	-0
182.936	0.6197
183.321	-0
183.706	0.5739
184.091	-0
184.476	0.111
184.86	0.1742
185.245	0.2611
185.63	-0
186.015	-0
186.399	0.7851
186.784	-0.5336
187.169	-0.5457
187.553	-0
187.938	0.6225
188.322	0.097
188.707	-0.014
189.091	-0.027
189.475	-0.0199
189.86	0.0094
190.244	0.0205
190.629	0.0105
191.013	0.001
191.397	-0.0005
191.781	0.0062
192.165	0.0143
192.55	0.0172
192.934	0.0149
193.318	0.0128
193.702	0.0167
194.086	0.0183
194.47	0.0156
194.854	0.0145
195.238	0.0116
195.622	0.012
196.006	0.0079
196.389	0.0126
196.773	0.0143
197.157	0.0166
197.541	0.0139
197.924	0.0178
198.308	0.0169
198.692	0.0156
199.075	0.0082
199.459	0.0107
199.843	0.0146
200.226	0.016
200.61	0.0185
200.993	0.0134
201.376	0.0148
201.76	0.0129
202.143	0.0145
202.527	0.0131
202.91	0.0102
203.293	0.0059
203.676	0.0084
204.059	0.0128
204.443	0.0204
204.826	0.0184
205.209	0.0164
205.592	0.0129
205.975	0.0127
206.358	0.0098
206.741	0.0092
207.124	0.0089
207.507	0.0102
207.89	0.0116
208.273	0.0113
208.655	0.0082
209.038	0.0033
209.421	0.0023
209.804	0.0034
210.186	0.0062
210.569	0.0069
210.951	0.0079
211.334	0.0062
211.717	0.0045
212.099	0.0021
212.482	0.0037
212.864	0.0048
213.246	0.0049
213.629	0.0031
214.011	0.0034
214.393	0.0059
214.776	0.0076
215.158	0.0057
215.54	0.0038
215.922	0.0041
216.305	0.0048
216.687	0.0054
217.069	0.0031
217.451	0.0056
217.833	0.0045
218.215	0.0068
218.597	0.0036
218.979	0.0045
219.361	0.0029
219.742	0.0022
220.124	0.0024
220.506	0.0015
220.888	0.003
221.27	0.0018
221.651	0.0023
222.033	0.0043
222.415	0.0041
222.796	0.0061
223.178	0.0053
223.559	0.008
223.941	0.0068
224.322	0.0074
224.704	0.0069
225.085	0.0085
225.466	0.0063
225.848	0.0061
226.229	0.0032
226.61	0.0035
226.992	0.0015
227.373	0.002
227.754	0.0009
228.135	0.0027
228.516	0.0041
228.897	0.0069
229.278	0.0053
229.659	0.0035
230.04	0.0022
230.421	0.0028
230.802	0.0042
231.183	0.0043
231.564	0.005
231.944	0.0034
232.325	0.0034
232.706	0.0026
233.087	0.0028
233.467	0.0016
233.848	0.0019
234.229	0.0022
234.609	0.0037
234.99	0.0015
235.37	0.0022
235.751	0.0026
236.131	0.004
236.511	0.0044
236.892	0.0031
237.272	0.0034
237.652	0.0025
238.033	0.0006
238.413	0
238.793	0.0004
239.173	0.0014
239.553	0.0001
239.933	0
240.313	0.0012
240.694	0.0018
241.074	0.0017
241.453	0.0018
241.833	0.003
242.213	0.0025
242.593	0.0013
242.973	0.0008
243.353	0.0002
243.732	0.0009
244.112	0.0006
244.492	0.0009
244.872	0.0013
245.251	0.0016
245.631	0.0011
246.01	0.0001
246.39	-0.0004
246.769	-0
247.149	0.0001
247.528	0.0006
247.908	0.001
248.287	0.0015
248.666	0.0024
249.045	0.0023
249.425	0.003
249.804	0.0016
250.183	0.0011
250.562	0.0007
250.941	0.0015
251.32	0.0041
251.699	0.0035
252.078	0.0024
252.457	0.0008
252.836	0.0015
253.215	0.0026
253.594	0.0021
253.973	0.001
254.352	-0.0003
254.731	0.0001
255.109	0.0001
255.488	-0.0006
255.867	-0.0019
256.245	-0.0016
256.624	-0.0009
257.002	0.0008
257.381	0.0001
257.759	0.0011
258.138	-0.0002
258.516	0.0019
258.895	0.0009
259.273	0.002
259.651	-0.0002
260.03	-0.001
260.408	-0.003
260.786	-0.0028
261.164	-0.0028
261.542	-0.0007
261.921	-0.0011
262.299	-0.0013
262.677	-0.0016
263.055	-0.0018
263.433	-0.0023
263.811	-0.0031
264.188	-0.0021
264.566	0.0002
264.944	0.0007
265.322	0.0004
265.7	0.0005
266.077	-0.0002
266.455	0.0007
266.833	0.0004
267.21	0.0015
267.588	0.0004
267.966	0.0003
268.343	-0.0011
268.721	-0.0006
269.098	0.0004
269.475	0.0008
269.853	-0
270.23	-0.0003
270.607	0.0014
270.985	0.0006
271.362	-0.0008
271.739	-0.0023
272.116	-0.0016
272.494	-0.0007
272.871	-0.0024
273.248	-0.002
273.625	-0.0022
274.002	-0.0014
274.379	-0.0005
274.756	0.0002
275.132	0.0008
275.509	0.0005
275.886	-0.001
276.263	-0.0008
276.64	-0.0001
277.016	-0.0004
277.393	-0.0016
277.77	-0.002
278.146	-0.0007
278.523	-0.0007
278.899	-0.0012
279.276	-0.0007
279.652	0.0003
280.029	-0.0004
280.405	-0.0019
280.782	-0.002
281.158	-0.0012
281.534	-0
281.91	0.0005
282.287	0.0001
282.663	-0.0018
283.039	-0.0027
283.415	-0.0028
283.791	-0.0003
284.167	-0.0003
284.543	0.0006
284.919	-0.0016
285.295	-0.0013
285.671	-0.0019
286.047	-0.0009
286.423	-0.0011
286.799	-0.0009
287.174	-0.0012
287.55	-0.0003
287.926	0.0001
288.301	-0.0003
288.677	-0.0022
289.053	-0.0026
289.428	-0.0031
289.804	-0.002
290.179	-0.0016
290.555	-0.0001
290.93	-0.002
291.305	-0.0037
291.681	-0.0037
292.056	-0.0023
292.431	-0.0022
292.806	-0.0023
293.182	-0.0011
293.557	0.0007
293.932	0.0019
294.307	0.0015
294.682	0.0009
295.057	-0.0002
295.432	0.0002
295.807	-0
296.182	-0.0004
296.557	-0.0003
296.932	0.0012
297.306	0.0024
297.681	0.0018
298.056	-0.0004
298.43	-0.0022
298.805	-0.0033
299.18	-0.0036
299.554	-0.003
299.929	-0.0021
300.303	-0.0003
300.678	-0.0003
301.052	0.0009
301.427	-0.0005
301.801	-0.0013
302.175	-0.0028
302.55	-0.0018
302.924	0.0001
303.298	0.0014
303.672	0
304.046	-0.0006
304.421	0.0002
304.795	0.002
305.169	0.0014
305.543	-0.0005
305.917	-0.0007
306.291	-0.0011
306.664	-0.0014
307.038	-0.0028
307.412	-0.0028
307.786	-0.0011
308.16	0.0012
308.533	0.0009
308.907	0.0004
309.281	-0
309.654	0.001
310.028	-0.0012
310.401	-0.0022
310.775	-0.002
311.148	0.0003
311.522	0.0002
311.895	0.0007
312.268	-0.0008
312.642	0.0006
313.015	0.0005
313.388	0.0007
313.761	-0.0003
314.135	-0.0017
314.508	-0.0013
314.881	-0.001
315.254	-0.0005
315.627	-0.0006
316	0.0004
316.373	0.0006
316.746	0.0017
317.118	-0.0007
317.491	-0.0012
317.864	-0.0015
318.237	0.0001
318.61	-0.0002
318.982	-0.0004
319.355	-0.0011
319.727	-0.0014
320.1	-0.0008
320.473	-0.0012
320.845	-0.0021
321.218	-0.0045
321.59	-0.004
321.962	-0.0039
322.335	-0.0029
322.707	-0.0034
323.079	-0.0013
323.452	-0.0003
323.824	-0.0002
324.196	-0.0007
324.568	-0.0011
324.94	-0.0017
325.312	-0.0009
325.684	0.001
326.056	0.0016
326.428	0.0012
326.8	0.0006
327.172	0.0003
327.544	0.0005
327.915	-0.0025
328.287	-0.0008
328.659	-0.0011
329.031	0.0008
329.402	0.0004
329.774	0.002
330.145	0.0004
330.517	0.0002
330.888	0.0001
331.26	0.0025
331.631	0.0003
332.003	-0.0014
332.374	-0.004
332.745	-0.0013
333.117	-0.0017
333.488	-0.0018
333.859	-0.0017
334.23	-0.0014
334.601	0.0006
334.972	0.0001
335.343	-0.0006
335.714	-0.0025
336.085	-0.0047
336.456	-0.0057
336.827	-0.0061
337.198	-0.0048
337.569	-0.0028
337.94	-0.0011
338.31	0.0005
338.681	0.0008
339.052	0.0017
339.422	0.0003
339.793	-0
340.164	-0.0017
340.534	0.0009
340.905	0.0006
341.275	-0
341.645	-0.0017
342.016	-0.0008
342.386	-0.0011
342.756	-0.0017
343.127	-0.0028
343.497	-0.0013
343.867	-0.0019
344.237	-0.0007
344.607	-0.001
344.977	0.0015
345.347	-0.0014
345.717	-0.0004
346.087	-0.0028
346.457	-0.0008
346.827	-0.0021
347.197	-0.0016
347.567	-0.0029
347.936	-0.0028
348.306	-0.001
348.676	0.0017
349.046	0.0014
349.415	0.001
349.785	-0.0015
350.154	-0.0023
350.524	-0.0037
350.893	-0.0049
351.263	-0.0043
351.632	-0.003
352.001	-0.0017
352.371	-0.0019
352.74	-0.0042
353.109	-0.0039
353.478	-0.0034
353.847	-0.002
354.217	-0.0018
354.586	-0.0016
354.955	-0.0027
355.324	-0.0026
355.693	-0.0027
356.062	-0.0035
356.43	-0.0026
356.799	-0.002
357.168	-0.0015
357.537	-0.0037
357.906	-0.0045
358.274	-0.0024
358.643	-0.0011
359.011	0.0005
359.38	-0.0012
359.749	-0.0023
360.117	-0.0023
360.486	-0.0018
360.854	-0.0001
361.222	-0.0011
361.591	-0.0024
361.959	-0.003
362.327	-0.0055
362.695	-0.0044
363.064	-0.0032
363.432	-0.0026
363.8	-0.0028
364.168	-0.0033
364.536	-0.0025
364.904	-0.002
365.272	-0.0031
365.64	-0.0036
366.008	-0.0038
366.376	-0.0032
366.743	-0.0014
367.111	-0.0019
367.479	-0.0028
367.847	-0.0057
368.214	-0.0048
368.582	-0.0039
368.949	-0.0031
369.317	-0.0034
369.684	-0.0032
370.052	-0.0019
370.419	-0.0013
370.787	-0.001
371.154	-0.0012
371.521	-0.0022
371.889	-0.0031
372.256	-0.0043
372.623	-0.0052
372.99	-0.005
373.357	-0.0061
373.724	-0.0052
374.091	-0.0055
374.458	-0.0031
374.825	-0.0018
375.192	-0.0028
375.559	-0.0031
375.926	-0.0023
376.293	-0.0037
376.659	-0.0018
377.026	-0.0043
377.393	-0.0002
377.759	-0.0031
378.126	-0.002
378.492	-0.0042
378.859	-0.0016
379.225	-0.0012
379.592	-0.0023
379.958	-0.0038
380.325	-0.0038
380.691	-0.0017
381.057	-0.0015
381.423	-0.0025
381.79	-0.0024
382.156	-0.0033
382.522	-0.0027
382.888	-0.0024
383.254	-0.0022
383.62	0.0002
383.986	-0.0017
384.352	-0.0007
384.718	-0.003
385.084	-0.0002
385.449	-0.0008
385.815	0
386.181	-0.0014
386.547	-0.0005
386.912	-0.0014
387.278	-0.0022
387.643	-0.0035
388.009	-0.0043
388.374	-0.0049
388.74	-0.0053
389.105	-0.0044
389.471	-0.0024
389.836	-0.0027
390.201	-0.0026
390.566	-0.0035
390.932	-0.0038
391.297	-0.0042
391.662	-0.004
392.027	-0.0019
392.392	-0.0018
392.757	-0.0007
393.122	-0.0008
393.487	-0.0004
393.852	0.0007
394.217	-0.0005
394.582	-0.001
394.946	-0.0034
395.311	-0.0029
395.676	-0.005
396.04	-0.0073
396.405	-0.0065
396.77	-0.0064
397.134	-0.0038
397.499	-0.0039
397.863	-0.0031
398.227	-0.0035
398.592	-0.0043
398.956	-0.0033
399.32	-0.0017
399.685	-0.0004
400.049	-0.0003
400.413	-0.0011
400.777	-0.0034
401.141	-0.0035
401.505	-0.0035
401.869	-0.0004
402.233	0.0005
402.597	0.0006
402.961	-0.0027
403.325	-0.0022
403.689	-0.0026
404.053	-0.0012
404.416	-0.0019
404.78	-0.0021
405.144	-0.0038
405.507	-0.0039
405.871	-0.0041
406.234	-0.0006
406.598	-0.0003
406.961	0.0033
407.325	0.0016
407.688	-0.0007
408.051	-0.0044
408.415	-0.0049
408.778	-0.0052
409.141	-0.0055
409.504	-0.0059
409.867	-0.0045
410.23	-0.0023
410.593	0.0005
410.956	0.0008
411.319	-0.0009
411.682	-0.0025
412.045	-0.0038
412.408	-0.0012
412.771	-0.0013
413.134	0.0001
413.496	-0.0037
413.859	-0.0045
414.222	-0.0056
414.584	-0.0043
414.947	-0.0034
415.309	-0.0041
415.672	-0.0045
416.034	-0.0043
416.396	-0.004
416.759	-0.0058
417.121	-0.0041
417.483	-0.0008
417.846	0.0038
418.208	0.0023
418.57	0.0003
418.932	-0.0002
419.294	-0.0007
419.656	-0.001
420.018	-0.0028
420.38	-0.0034
420.742	-0.0024
421.104	-0.0028
421.466	-0.0006
421.827	-0.0001
422.189	0.0004
422.551	-0.0035
422.912	-0.0051
423.274	-0.0054
423.636	-0.004
423.997	-0.0047
424.359	-0.0048
424.72	-0.0038
425.081	-0.0035
425.443	-0.0044
425.804	-0.0075
426.165	-0.0082
426.527	-0.0053
426.888	-0.0034
427.249	-0.0043
427.61	-0.0082
427.971	-0.0055
428.332	-0.0043
428.693	0.0021
429.054	0.0011
429.415	0.0039
429.776	0.001
430.137	0.0022
430.498	0.0006
430.858	-0.0013
431.219	-0.0054
431.58	-0.0041
431.94	-0.0026
432.301	-0.0015
432.661	-0.0029
433.022	-0.0034
433.382	-0.0008
433.743	-0
434.103	0.001
434.463	-0.0009
434.824	0.0006
435.184	0.0001
435.544	0.0002
435.904	-0.003
436.264	-0.0049
436.624	-0.0064
436.985	-0.0054
437.345	-0.0036
437.704	-0.0005
438.064	-0.0009
438.424	-0.0011
438.784	-0.0022
439.144	-0.0038
439.504	-0.0045
439.863	-0.0052
440.223	-0.0027
440.583	-0.0015
440.942	0.0016
441.302	-0.0007
441.661	-0.0022
442.021	-0.0048
442.38	-0.0023
442.739	-0.002
443.099	-0.005
443.458	-0.0047
443.817	-0.0035
444.176	-0.0016
444.536	-0.002
444.895	-0.0044
445.254	-0.0027
445.613	-0.0055
445.972	-0.0055
446.331	-0.0053
446.69	-0.0019
447.049	0.0013
447.407	0.0015
447.766	-0.0036
448.125	-0.0053
448.484	-0.0072
448.842	-0.0037
449.201	-0.0034
449.559	-0.0034
449.918	-0.0029
450.276	-0.0039
450.635	-0.0018
450.993	-0.0042
451.352	-0.0053
451.71	-0.0077
452.068	-0.0079
452.426	-0.0056
452.785	-0.0033
453.143	-0.0014
453.501	-0.0032
453.859	-0.0053
454.217	-0.0073
454.575	-0.0069
454.933	-0.0066
455.291	-0.0039
455.649	-0.0009
456.006	-0.0022
456.364	-0.0024
456.722	-0.0036
457.079	0.0003
457.437	-0.0005
457.795	0.0007
458.152	-0.0034
458.51	-0.0024
458.867	-0.0032
459.225	-0
459.582	-0.0003
459.939	0.0018
460.297	0.0026
460.654	0.0037
461.011	0.0006
461.368	-0.0018
461.725	-0.0046
462.082	-0.0085
462.44	-0.0083
462.797	-0.0069
463.153	-0.0024
463.51	-0.0024
463.867	-0.0038
464.224	-0.0037
464.581	-0.0028
464.938	-0.0027
465.294	-0.0033
465.651	-0.0072
466.008	-0.0078
466.364	-0.0083
466.721	-0.0059
467.077	-0.0015
467.434	-0.004
467.79	-0.0043
468.146	-0.0078
468.503	-0.0066
468.859	-0.0044
469.215	-0.0033
469.571	-0.0029
469.927	-0.0077
470.284	-0.0093
470.64	-0.0092
470.996	-0.0064
471.352	-0.0031
471.707	-0.0022
472.063	-0.0009
472.419	-0.0019
472.775	-0.0004
473.131	-0.0005
473.486	-0.0008
473.842	-0.0035
474.198	-0.0036
474.553	-0.0049
474.909	-0.0021
475.264	-0.0028
475.62	-0.0029
475.975	-0.0022
476.331	-0.0015
476.686	-0.0041
477.041	-0.0069
477.396	-0.008
477.752	-0.0044
478.107	-0.0043
478.462	-0.0023
478.817	-0.0019
479.172	-0.0011
479.527	-0.0012
479.882	-0.0008
480.237	-0.0022
480.591	-0.0063
480.946	-0.0072
481.301	-0.0058
481.656	-0.0044
482.01	-0.0052
482.365	-0.0063
482.72	-0.0076
483.074	-0.0066
483.429	-0.0037
483.783	-0.0019
484.137	-0.0023
484.492	-0.0037
484.846	-0.0034
485.2	-0.0024
485.555	-0.0045
485.909	-0.0043
486.263	-0.0043
486.617	-0.0047
486.971	-0.0023
487.325	-0.0014
487.679	-0.0027
488.033	-0.0078
488.387	-0.0082
488.741	-0.0051
489.094	-0.0029
489.448	-0.0051
489.802	-0.0049
490.156	-0.0051
490.509	-0.0041
490.863	-0.0054
491.216	-0.0048
491.57	-0.0048
491.923	-0.0033
492.277	-0.0042
492.63	-0.0054
492.983	-0.0079
493.337	-0.0055
493.69	-0.0051
494.043	-0.0017
494.396	-0.0041
494.749	0.0015
495.102	-0
495.455	-0.0013
495.808	-0.0038
496.161	-0.0044
496.514	-0.0026
496.867	-0.0027
497.22	-0.0035
497.572	-0.0036
497.925	-0.0045
498.278	-0.0027
498.63	-0.0029
498.983	-0.003
499.335	-0.0034
499.688	-0.0048
500.04	-0.0073
500.393	-0.0084
500.745	-0.007
501.097	-0.0056
501.449	-0.0048
501.802	-0.005
502.154	-0.0072
502.506	-0.0065
502.858	-0.0065
503.21	-0.0039
503.562	-0.0031
503.914	-0.0012
504.266	-0.0012
504.618	-0.0019
504.969	-0.0054
505.321	-0.0056
505.673	-0.0053
506.025	-0.0015
506.376	-0.0015
506.728	-0.0024
507.079	-0.0041
507.431	-0.004
507.782	-0.0055
508.134	-0.0057
508.485	-0.0044
508.836	-0.0051
509.188	-0.0031
509.539	-0.0056
509.89	-0.0037
510.241	-0.0059
510.592	-0.0084
510.943	-0.0086
511.294	-0.0094
511.645	-0.005
511.996	-0.0026
512.347	-0.0007
512.698	-0.0027
513.049	-0.0053
513.399	-0.0054
513.75	-0.0035
514.101	-0.0037
514.451	-0.0044
514.802	-0.0052
515.152	-0.0043
515.503	-0.0023
515.853	-0.0017
516.203	-0.0026
516.554	-0.003
516.904	-0.0055
517.254	-0.002
517.604	-0.0052
517.955	-0.0017
518.305	-0.0068
518.655	-0.005
519.005	-0.0082
519.355	-0.0055
519.705	-0.0043
520.055	-0.0042
520.404	-0.0073
520.754	-0.0104
521.104	-0.0098
521.454	-0.0071
521.803	-0.003
522.153	-0.005
522.502	-0.0037
522.852	-0.0045
523.201	-0.0025
523.551	-0.0049
523.9	-0.0033
524.249	-0.004
524.599	-0.0025
524.948	-0.0075
525.297	-0.0079
525.646	-0.0078
525.995	-0.0062
526.344	-0.0032
526.694	-0.0051
527.042	-0.0045
527.391	-0.0073
527.74	-0.0063
528.089	-0.0064
528.438	-0.0029
528.787	-0.0012
529.135	-0.0015
529.484	-0.0026
529.833	-0.0041
530.181	-0.0041
530.53	-0.0053
530.878	-0.0077
531.227	-0.0051
531.575	-0.0052
531.923	-0.0018
532.271	-0.0053
532.62	-0.0062
532.968	-0.0091
533.316	-0.0085
533.664	-0.0088
534.012	-0.0073
534.36	-0.0088
534.708	-0.0086
535.056	-0.0079
535.404	-0.0059
535.752	-0.0055
536.1	-0.0063
536.447	-0.0081
536.795	-0.0031
537.143	-0.0041
537.49	-0.0022
537.838	-0.0074
538.185	-0.004
538.533	-0.0023
538.88	-0.0019
539.228	-0.0075
539.575	-0.0054
539.922	-0.0001
540.269	0.0026
540.617	-0.0011
540.964	-0.006
541.311	-0.0047
541.658	-0.0061
542.005	-0.0053
542.352	-0.0093
542.699	-0.0083
543.045	-0.0104
543.392	-0.0059
543.739	-0.0052
544.086	-0.0051
544.432	-0.0047
544.779	-0.0057
545.126	-0.005
545.472	-0.0065
545.819	-0.0073
546.165	-0.0067
546.512	-0.0073
546.858	-0.0064
547.204	-0.0077
547.55	-0.0072
547.897	-0.0065
548.243	-0.0057
548.589	-0.0102
548.935	-0.0109
549.281	-0.0102
549.627	-0.0073
549.973	-0.0083
550.319	-0.0073
550.665	-0.0071
551.01	-0.0073
551.356	-0.0071
551.702	-0.0065
552.048	-0.0046
552.393	-0.0062
552.739	-0.0018
553.084	-0.003
553.43	-0.0019
553.775	-0.006
554.12	-0.0066
554.466	-0.008
554.811	-0.0065
555.156	-0.0052
555.502	-0.0066
555.847	-0.0062
556.192	-0.0072
556.537	-0.0054
556.882	-0.0071
557.227	-0.0065
557.572	-0.0064
557.917	-0.0058
558.261	-0.0071
558.606	-0.0051
558.951	-0.0073
559.295	-0.0079
559.64	-0.0095
559.985	-0.0048
560.329	-0.0027
560.674	-0.0052
561.018	-0.0083
561.363	-0.0092
561.707	-0.0078
562.051	-0.0082
562.395	-0.0076
562.74	-0.0063
563.084	-0.0073
563.428	-0.0068
563.772	-0.0076
564.116	-0.0064
564.46	-0.0095
564.804	-0.0093
565.148	-0.0092
565.492	-0.0063
565.835	-0.0079
566.179	-0.0096
566.523	-0.0103
566.866	-0.0081
567.21	-0.0099
567.554	-0.0095
567.897	-0.0097
568.24	-0.0018
568.584	-0.0002
568.927	-0.0018
569.271	-0.0077
569.614	-0.0053
569.957	-0.0049
570.3	-0.0072
570.643	-0.0106
570.986	-0.0104
571.329	-0.006
571.672	-0.005
572.015	-0.0051
572.358	-0.0068
572.701	-0.008
573.044	-0.0098
573.387	-0.0071
573.729	-0.0077
574.072	-0.0061
574.414	-0.0072
574.757	-0.01
575.099	-0.0104
575.442	-0.0116
575.784	-0.0088
576.127	-0.0073
576.469	-0.0075
576.811	-0.0043
577.153	-0.0045
577.496	-0.0052
577.838	-0.0095
578.18	-0.0102
578.522	-0.0099
578.864	-0.008
579.206	-0.0092
579.548	-0.01
579.889	-0.0093
580.231	-0.0082
580.573	-0.0066
580.915	-0.0066
581.256	-0.0071
581.598	-0.0074
581.939	-0.0051
582.281	-0.0063
582.622	-0.0072
582.964	-0.011
583.305	-0.0081
583.646	-0.0042
583.988	-0.0012
584.329	-0.0066
584.67	-0.0079
585.011	-0.0098
585.352	-0.0063
585.693	-0.0079
586.034	-0.0077
586.375	-0.0085
586.716	-0.0106
587.057	-0.0123
587.398	-0.0102
587.738	-0.0096
588.079	-0.0085
588.42	-0.011
588.76	-0.0094
589.101	-0.0112
589.441	-0.0068
589.782	-0.0056
590.122	-0.0037
590.463	-0.0061
590.803	-0.0061
591.143	-0.0093
591.483	-0.0102
591.823	-0.0113
592.164	-0.0082
592.504	-0.0064
592.844	-0.0108
593.184	-0.0111
593.523	-0.0138
593.863	-0.0114
594.203	-0.01
594.543	-0.0096
594.883	-0.0069
595.222	-0.0021
595.562	-0.0037
595.901	-0.0057
596.241	-0.0096
596.58	-0.008
596.92	-0.0072
597.259	-0.0082
597.599	-0.0065
597.938	-0.0068
598.277	-0.0076
598.616	-0.009
598.955	-0.0101
599.295	-0.0118
599.634	-0.0076
599.973	-0.0096
600.312	-0.0077
600.65	-0.0115
600.989	-0.007
601.328	-0.0043
601.667	-0.0045
602.005	-0.0072
602.344	-0.0071
602.683	-0.0075
603.021	-0.007
603.36	-0.0096
603.698	-0.0097
604.037	-0.0117
604.375	-0.0102
604.713	-0.0078
605.052	-0.0044
605.39	-0.0064
605.728	-0.0083
606.066	-0.0102
606.404	-0.0089
606.742	-0.011
607.08	-0.0129
607.418	-0.0132
607.756	-0.0096
608.094	-0.0074
608.431	-0.0064
608.769	-0.0091
609.107	-0.0072
609.444	-0.0112
609.782	-0.0067
610.12	-0.0079
610.457	-0.0061
610.794	-0.0086
611.132	-0.008
611.469	-0.0076
611.806	-0.0098
612.144	-0.01
612.481	-0.0097
612.818	-0.0093
613.155	-0.0103
613.492	-0.0085
613.829	-0.0067
614.166	-0.0053
614.503	-0.008
614.84	-0.0073
615.176	-0.0106
615.513	-0.0108
615.85	-0.0106
616.187	-0.0084
616.523	-0.0062
616.86	-0.0065
617.196	-0.0089
617.533	-0.0102
617.869	-0.0099
618.205	-0.0087
618.542	-0.0108
618.878	-0.0114
619.214	-0.0088
619.55	-0.0072
619.886	-0.008
620.222	-0.0062
620.558	-0.0046
620.894	-0.0034
621.23	-0.0071
621.566	-0.0082
621.902	-0.0128
622.238	-0.0134
622.573	-0.0134
622.909	-0.0107
623.244	-0.0106
623.58	-0.0105
623.916	-0.0072
624.251	-0.0059
624.586	-0.0036
624.922	-0.0067
625.257	-0.0108
625.592	-0.0138
625.927	-0.0131
626.263	-0.01
626.598	-0.0112
626.933	-0.0136
627.268	-0.0119
627.603	-0.0087
627.938	-0.0032
628.272	-0.0044
628.607	-0.0061
628.942	-0.0121
629.277	-0.0108
629.611	-0.0044
629.946	-0.0038
630.281	-0.0005
630.615	-0.0084
630.949	-0.0076
631.284	-0.01
631.618	-0.008
631.953	-0.0084
632.287	-0.0137
632.621	-0.015
632.955	-0.0124
633.289	-0.0103
633.623	-0.0078
633.957	-0.0058
634.291	-0.0067
634.625	-0.0107
634.959	-0.0125
635.293	-0.0116
635.627	-0.0076
635.96	-0.0062
636.294	-0.0014
636.627	-0.004
636.961	-0.0096
637.294	-0.0092
637.628	-0.0076
637.961	-0.0096
638.295	-0.0058
638.628	-0.002
638.961	0.0011
639.294	-0.005
639.628	-0.0145
639.961	-0.0154
640.294	-0.0164
640.627	-0.0111
640.96	-0.0109
641.293	-0.0118
641.625	-0.0102
641.958	-0.0085
642.291	-0.0066
642.624	-0.0071
642.956	-0.0106
643.289	-0.011
643.621	-0.0114
643.954	-0.0087
644.286	-0.0107
644.619	-0.0116
644.951	-0.0104
645.283	-0.0071
645.616	-0.0089
645.948	-0.0084
646.28	-0.0067
646.612	-0.0026
646.944	-0.0029
647.276	-0.0048
647.608	-0.0034
647.94	-0.0063
648.272	-0.0065
648.603	-0.0054
648.935	-0.0051
649.267	-0.0112
649.598	-0.0125
649.93	-0.0091
650.261	-0.0066
650.593	-0.0054
650.924	-0.0101
651.256	-0.007
651.587	-0.0079
651.918	-0.0073
652.25	-0.0062
652.581	-0.0097
652.912	-0.0123
653.243	-0.0165
653.574	-0.0127
653.905	-0.0074
654.236	-0.0059
654.567	-0.0081
654.897	-0.0107
655.228	-0.0091
655.559	-0.0052
655.89	-0.0038
656.22	-0.0088
656.551	-0.0097
656.881	-0.0015
657.212	0.0034
657.542	0.0004
657.872	-0.0049
658.203	-0.0017
658.533	-0.0004
658.863	-0.0074
659.193	-0.0115
659.523	-0.0195
659.853	-0.0191
660.183	-0.0148
660.513	-0.0127
660.843	-0.0099
661.173	-0.0076
661.503	-0.0076
661.833	-0.0118
662.162	-0.0095
662.492	-0.0033
662.822	-0.003
663.151	-0.0038
663.481	-0.0077
663.81	-0.0028
664.139	-0.0069
664.469	-0.0083
664.798	-0.0077
665.127	-0.0037
665.456	-0.0028
665.785	-0.0023
666.114	-0.0009
666.443	-0.001
666.772	-0.003
667.101	-0.0061
667.43	-0.0069
667.759	-0.0118
668.088	-0.0114
668.416	-0.0142
668.745	-0.0104
669.074	-0.012
669.402	-0.005
669.731	0.0021
670.059	0.0026
670.388	0.0012
670.716	-0.0025
671.044	0.0002
671.372	-0.0015
671.701	-0.0052
672.029	-0.0124
672.357	-0.0145
672.685	-0.0096
673.013	-0.008
673.341	-0.0102
673.669	-0.0142
673.996	-0.0097
674.324	-0.0048
674.652	-0.0041
674.98	-0.006
675.307	-0.0084
675.635	-0.0104
675.962	-0.0111
676.29	-0.0122
676.617	-0.0136
676.945	-0.017
677.272	-0.0196
677.599	-0.0182
677.926	-0.0165
678.253	-0.016
678.581	-0.0148
678.908	-0.0091
679.235	-0.0043
679.561	-0.0049
679.888	-0.0042
680.215	-0.0075
680.542	-0.004
680.869	-0.0049
681.195	-0.0013
681.522	-0.0017
681.849	0.0011
682.175	-0.0027
682.502	-0.0109
682.828	-0.0199
683.154	-0.0222
683.481	-0.0156
683.807	-0.0112
684.133	-0.0078
684.459	-0.004
684.785	-0.0042
685.111	-0.0058
685.437	-0.0131
685.763	-0.0158
686.089	-0.0122
686.415	-0.0092
686.741	-0.0104
687.067	-0.0085
687.392	-0.0142
687.718	-0.0107
688.043	-0.0134
688.369	-0.0083
688.694	-0.0086
689.02	-0.006
689.345	-0.0075
689.67	-0.009
689.996	-0.0135
690.321	-0.0131
690.646	-0.0134
690.971	-0.0113
691.296	-0.0154
691.621	-0.0101
691.946	-0.0103
692.271	-0.0017
692.596	-0.0079
692.921	-0.0058
693.245	-0.0132
693.57	-0.0136
693.895	-0.0164
694.219	-0.0157
694.544	-0.0139
694.868	-0.0146
695.193	-0.0135
695.517	-0.0145
695.841	-0.0176
696.166	-0.013
696.49	-0.0103
696.814	-0.0061
697.138	-0.013
697.462	-0.0144
697.786	-0.0133
698.11	-0.0074
698.434	-0.0059
698.758	-0.0055
699.081	-0.0085
699.405	-0.0087
699.729	-0.0065
700.052	-0.0083
700.376	-0.0099
700.7	-0.0062
701.023	-0.0028
701.346	-0.0077
701.67	-0.0146
701.993	-0.0131
702.316	-0.0056
702.639	-0.004
702.963	-0.005
703.286	-0.0054
703.609	-0.0087
703.932	-0.0141
704.255	-0.0135
704.578	-0.0166
704.9	-0.0119
705.223	-0.0113
705.546	-0.014
705.868	-0.0144
706.191	-0.0146
706.514	-0.0087
706.836	-0.0024
707.159	-0.0024
707.481	-0.0005
707.803	-0.0035
708.126	-0.0073
708.448	-0.0102
708.77	-0.0128
709.092	-0.0091
709.414	-0.0064
709.736	-0.0102
710.058	-0.0104
710.38	-0.011
710.702	-0.0053
711.024	-0.006
711.345	-0.0032
711.667	-0.0106
711.989	-0.0114
712.31	-0.0138
712.632	-0.0092
712.953	-0.0072
713.275	-0.0087
713.596	-0.0104
713.917	-0.0102
714.239	-0.0059
714.56	-0.0003
714.881	-0.003
715.202	-0.005
715.523	-0.007
715.844	-0.0069
716.165	-0.0097
716.486	-0.0119
716.807	-0.0114
717.128	-0.0116
717.448	-0.0134
717.769	-0.0105
718.09	-0.0102
718.41	-0.0087
718.731	-0.0073
719.051	-0.0085
719.372	-0.0062
719.692	-0.0128
720.012	-0.0131
720.332	-0.012
720.653	-0.0148
720.973	-0.0137
721.293	-0.0133
721.613	-0.0072
721.933	-0.0046
722.253	-0.0073
722.573	-0.0116
722.892	-0.0135
723.212	-0.0139
723.532	-0.0145
723.851	-0.0148
724.171	-0.0146
724.491	-0.0175
724.81	-0.0197
725.129	-0.0189
725.449	-0.0178
725.768	-0.0161
726.087	-0.0153
726.407	-0.0152
726.726	-0.0158
727.045	-0.014
727.364	-0.0117
727.683	-0.0065
728.002	-0.0057
728.321	-0.0045
728.64	-0.0087
728.958	-0.0129
729.277	-0.0107
729.596	-0.0069
729.914	-0.0033
730.233	-0.0033
730.551	-0.0063
730.87	-0.0061
731.188	-0.0067
731.507	-0.0047
731.825	-0.0047
732.143	-0.0023
732.461	-0.0021
732.779	-0.0058
733.097	-0.0052
733.415	-0.0067
733.733	-0.0068
734.051	-0.009
734.369	-0.0063
734.687	-0.0051
735.005	-0.0063
735.322	-0.0157
735.64	-0.0145
735.957	-0.0181
736.275	-0.0155
736.592	-0.0201
736.91	-0.016
737.227	-0.015
737.544	-0.0163
737.862	-0.018
738.179	-0.0166
738.496	-0.013
738.813	-0.0108
739.13	-0.0123
739.447	-0.0103
739.764	-0.0138
740.081	-0.0163
740.398	-0.0222
740.714	-0.0216
741.031	-0.0179
741.348	-0.0153
741.664	-0.0099
741.981	-0.0134
742.297	-0.0126
742.614	-0.0159
742.93	-0.0083
743.246	-0.0073
743.563	-0.009
743.879	-0.0138
744.195	-0.0132
744.511	-0.0088
744.827	-0.0096
745.143	-0.0124
745.459	-0.0158
745.775	-0.0131
746.091	-0.0126
746.406	-0.0135
746.722	-0.0125
747.038	-0.0102
747.353	-0.0066
747.669	-0.0096
747.984	-0.0074
748.3	-0.0049
748.615	-0.0039
748.93	-0.0038
749.246	-0.0071
749.561	-0.0078
749.876	-0.0087
750.191	-0.0048
750.506	-0.0034
750.821	-0.006
751.136	-0.0088
751.451	-0.0112
751.766	-0.0115
752.08	-0.0164
752.395	-0.0165
752.71	-0.0213
753.024	-0.022
753.339	-0.0259
753.653	-0.0205
753.968	-0.0198
754.282	-0.0165
754.596	-0.0139
754.911	-0.0181
755.225	-0.016
755.539	-0.0089
755.853	0.0044
756.167	0.0019
756.481	-0.0024
756.795	-0.01
757.109	-0.0074
757.423	-0.0116
757.736	-0.0127
758.05	-0.0176
758.364	-0.0176
758.677	-0.0137
758.991	-0.0105
759.304	-0.0126
759.618	-0.0139
759.931	-0.0117
760.244	-0.0066
760.558	-0.007
760.871	-0.0061
761.184	-0.0088
761.497	-0.007
761.81	-0.0061
762.123	-0.0069
762.436	-0.0105
762.749	-0.0092
763.062	-0.0062
763.374	-0.0009
763.687	-0.0087
764	-0.0168
764.312	-0.0164
764.625	-0.0152
764.937	-0.0127
765.25	-0.0149
765.562	-0.0111
765.874	-0.0086
766.186	-0.0108
766.499	-0.0098
766.811	-0.0079
767.123	-0.0123
767.435	-0.0156
767.747	-0.0153
768.059	-0.0083
768.37	-0.0059
768.682	-0.0069
768.994	-0.011
769.306	-0.012
769.617	-0.0084
769.929	-0.0117
770.24	-0.0084
770.552	-0.012
770.863	-0.0091
771.174	-0.0101
771.486	-0.0098
771.797	-0.0097
772.108	-0.0162
772.419	-0.0183
772.73	-0.0188
773.041	-0.0146
773.352	-0.0078
773.663	-0.0043
773.974	-0.001
774.285	-0.0035
774.595	0.0005
774.906	-0.0044
775.217	-0.0062
775.527	-0.0116
775.838	-0.0105
776.148	-0.007
776.458	-0.0046
776.769	-0.0019
777.079	-0.0068
777.389	-0.0131
777.699	-0.0083
778.009	-0.0063
778.319	-0.0055
778.629	-0.0157
778.939	-0.0208
779.249	-0.0113
779.559	-0.0055
779.869	-0.0017
780.178	-0.011
780.488	-0.0161
780.798	-0.0201
781.107	-0.0221
781.417	-0.0171
781.726	-0.0106
782.035	-0.0086
782.345	-0.0107
782.654	-0.0173
782.963	-0.0167
783.272	-0.0193
783.581	-0.0153
783.89	-0.0126
784.199	-0.0073
784.508	-0.0108
784.817	-0.0071
785.126	-0.0115
785.434	-0.0098
785.743	-0.0186
786.052	-0.0132
786.36	-0.0094
786.669	-0.0061
786.977	-0.0121
787.285	-0.0068
787.594	-0.0061
787.902	-0.0051
788.21	-0.013
788.518	-0.0134
788.826	-0.0122
789.135	-0.013
789.442	-0.0154
789.75	-0.0183
790.058	-0.0152
790.366	-0.0144
790.674	-0.0118
790.981	-0.0137
791.289	-0.0143
791.597	-0.0135
791.904	-0.0104
792.212	-0.0065
792.519	-0.0081
792.826	-0.0057
793.134	-0.0055
793.441	0.0005
793.748	-0.0039
794.055	-0.0043
794.362	-0.0089
794.669	-0.0073
794.976	-0.0117
795.283	-0.0151
795.59	-0.0162
795.897	-0.011
796.203	-0.0108
796.51	-0.0074
796.817	-0.0136
797.123	-0.011
797.43	-0.0093
797.736	-0.004
798.042	-0.0034
798.349	-0.0089
798.655	-0.0129
798.961	-0.0169
799.267	-0.018
799.573	-0.0149
799.879	-0.0077
800.185	-0.0083
800.491	-0.0062
800.797	-0.005
801.103	-0.0011
801.408	-0.005
801.714	-0.0132
802.02	-0.0166
802.325	-0.0107
802.631	-0.0045
802.936	0.0004
803.242	-0.0036
803.547	-0.0056
803.852	-0.007
804.157	0.0011
804.462	-0.0022
804.768	-0.0023
805.073	-0.0175
805.378	-0.0133
805.682	-0.0164
805.987	-0.0161
806.292	-0.0149
806.597	-0.0088
806.902	-0.0034
807.206	-0.0074
807.511	-0.0118
807.815	-0.0097
808.12	-0.0016
808.424	0.0036
808.728	0.0026
809.033	-0.0021
809.337	-0.0043
809.641	-0.0024
809.945	-0.0052
810.249	-0.0043
810.553	-0.0049
810.857	-0.0053
811.161	-0.0063
811.465	-0.0098
811.768	-0.0004
812.072	-0.0038
812.376	-0.0018
812.679	-0.009
812.983	-0.0062
813.286	-0.0034
813.59	-0.005
813.893	-0.0092
814.196	-0.0109
814.499	-0.0086
814.803	-0.0079
815.106	-0.0152
815.409	-0.0155
815.712	-0.0097
816.015	-0.0031
816.318	-0.0088
816.62	-0.0191
816.923	-0.0189
817.226	-0.0088
817.528	-0.0078
817.831	-0.0056
818.133	-0.005
818.436	0.0054
818.738	0.001
819.041	-0.01
819.343	-0.0164
819.645	-0.0158
819.947	-0.0172
820.249	-0.0153
820.551	-0.0136
820.853	-0.0058
821.155	-0.0071
821.457	-0.0123
821.759	-0.0223
822.061	-0.0178
822.362	-0.0144
822.664	-0.0036
822.966	-0.0058
823.267	-0.0059
823.569	-0.0154
823.87	-0.0153
824.171	-0.0176
824.473	-0.0072
824.774	-0.0069
825.075	-0.0023
825.376	-0.0025
825.677	-0.005
825.978	-0.0081
826.279	-0.0114
826.58	-0.0056
826.881	-0.0097
827.181	-0.0063
827.482	-0.0126
827.783	-0.0045
828.083	-0.0105
828.384	-0.0123
828.684	-0.0173
828.985	-0.0128
829.285	-0.0147
829.585	-0.0144
829.885	-0.0165
830.185	-0.0028
830.486	0.0063
830.786	-0.0007
831.086	-0.013
831.385	-0.0255
831.685	-0.0158
831.985	-0.0204
832.285	-0.013
832.585	-0.0119
832.884	-0.0089
833.184	-0.0122
833.483	-0.0143
833.783	-0.0033
834.082	0.0005
834.381	-0.0031
834.681	-0.0091
834.98	-0.0084
835.279	-0.0044
835.578	-0.0092
835.877	-0.0145
836.176	-0.0107
836.475	-0.0151
836.774	-0.016
837.072	-0.0228
837.371	-0.0111
837.67	-0.0146
837.968	-0.0068
838.267	0.002
838.565	0.0153
838.864	0.007
839.162	-0.0096
839.46	-0.019
839.759	-0.0126
840.057	-0.0029
840.355	0.0047
840.653	-0.0057
840.951	-0.004
841.249	-0.0019
841.547	0.0043
841.845	-0.0064
842.142	-0.0115
842.44	-0.0025
842.738	-0.002
843.035	0.0026
843.333	-0.0065
843.63	-0.0008
843.928	-0.013
844.225	-0.0159
844.522	-0.0172
844.82	-0.0163
845.117	-0.0064
845.414	-0.0141
845.711	-0.0086
846.008	-0.0052
846.305	-0.0155
846.602	-0.0117
846.898	-0.0197
847.195	-0.001
847.492	-0.0149
847.788	-0.0098
848.085	-0.02
848.382	-0.0009
848.678	-0.0149
848.974	0.0048
849.271	0.0066
849.567	0.0176
849.863	0.0144
850.159	0.0057
850.455	-0.0015
850.751	-0.0071
851.047	-0.0241
851.343	-0.0144
851.639	-0.0095
851.935	-0.0038
852.23	-0.0061
852.526	-0.0068
852.822	0.0111
853.117	0.0124
853.413	-0.0041
853.708	-0.0105
854.003	-0.014
854.299	0
854.594	-0.0095
854.889	-0.0087
855.184	-0.0032
855.479	-0.0026
855.774	-0.0114
856.069	-0.0327
856.364	-0.0352
856.659	-0.0322
856.954	-0.0216
857.248	-0.0043
857.543	-0.0163
857.837	-0.0245
858.132	-0.0242
858.426	-0.0031
858.721	0.0094
859.015	-0.0059
859.309	-0.0079
859.604	-0.0227
859.898	-0.006
860.192	-0.0086
860.486	0.0151
860.78	0.0126
861.074	0.0189
861.367	0.0008
861.661	-0.0087
861.955	-0.0148
862.248	-0.0148
862.542	0.002
862.836	0.0235
863.129	0.014
863.422	-0.0025
863.716	-0.0205
864.009	0.0024
864.302	-0.0084
864.595	0.0052
864.889	0.0106
865.182	0.0006
865.475	-0.011
865.767	-0.0276
866.06	-0.0099
866.353	-0.0099
866.646	-0.0048
866.938	0.0049
867.231	-0.008
867.524	-0.0069
867.816	-0.0252
868.109	-0.0162
868.401	-0.0198
868.693	-0.0049
868.985	0.0126
869.278	0.0293
869.57	0.0318
869.862	-0.0043
870.154	0.0059
870.446	-0.0012
870.738	0.02
871.029	0.0179
871.321	0.0231
871.613	0.0183
871.904	0.016
872.196	0.0145
872.487	0.0107
872.779	-0.0036
873.07	0.0141
873.362	0.0244
873.653	0.0185
873.944	0.0002
874.235	0.0036
874.526	0.02
874.817	0.0388
875.108	0.004
875.399	-0.0094
875.69	-0.0243
875.981	-0.0088
876.271	0.0073
876.562	0.005
876.853	0.0064
877.143	-0.0148
877.434	-0.0257
877.724	-0.0515
878.014	-0.0607
878.305	-0.0289
878.595	0.0097
878.885	-0.0081
879.175	-0.0344
879.465	-0.0176
879.755	-0.0007
880.045	0.0435
880.335	0.0513
880.624	0.1034
880.914	0.1034
