Data from DIblank2_080217_1a_Absorbance_17-27-45-954.txt Node
Date: Wed Aug 02 17:27:45 MDT 2017
User: Tank Lab
Spectrometer: FLMS01220
Trigger mode: 0
Integration Time (sec): 1.000000E-1
Scans to average: 10
Electric dark correction enabled: true
Nonlinearity correction enabled: false
Boxcar width: 1
XAxis mode: Wavelengths
Number of Pixels in Spectrum: 2048
>>>>>Begin Spectral Data<<<<<
179.47	1.3107
179.856	1.3107
180.241	-0
180.626	-0
181.011	-0
181.396	-0
181.781	-0.6565
182.166	-0
182.551	-0
182.936	-2.0857
183.321	-0
183.706	0.9468
184.091	0.5584
184.476	0.1809
184.86	-0.0026
185.245	-0.5997
185.63	-0
186.015	-0
186.399	-0
186.784	-0
187.169	0.3163
187.553	-1.0847
187.938	-0.2763
188.322	-0.1296
188.707	-0.0402
189.091	-0.0368
189.475	-0.0328
189.86	-0.0383
190.244	-0.0387
190.629	-0.0189
191.013	0.0064
191.397	0.0126
191.781	0.0024
192.165	-0.0056
192.55	-0.018
192.934	-0.0179
193.318	-0.0165
193.702	-0.0117
194.086	-0.0087
194.47	-0.0078
194.854	-0.0014
195.238	0.0066
195.622	0.0088
196.006	0.0101
196.389	0.0032
196.773	0.0036
197.157	0.0074
197.541	0.0075
197.924	0.0012
198.308	-0.0014
198.692	0.0022
199.075	0.0067
199.459	0.0066
199.843	0.0009
200.226	0.0011
200.61	0.0001
200.993	0.0032
201.376	0.0052
201.76	0.004
202.143	0.0049
202.527	0.0036
202.91	0.0067
203.293	0.0061
203.676	0.0084
204.059	0.0058
204.443	0.0044
204.826	0.0006
205.209	0.0008
205.592	0.0025
205.975	0.002
206.358	0.0018
206.741	0.0028
207.124	0.0032
207.507	0.0008
207.89	0.0012
208.273	0.0004
208.655	0.0037
209.038	0.002
209.421	0.0033
209.804	0.001
210.186	0.0033
210.569	0.0012
210.951	0.003
211.334	0.0013
211.717	0.0025
212.099	0.0006
212.482	0.0013
212.864	0.0022
213.246	0.0038
213.629	0.0034
214.011	0.0028
214.393	-0.0003
214.776	-0.0005
215.158	0.0001
215.54	0.0019
215.922	0.0012
216.305	0.003
216.687	0.0029
217.069	0.0033
217.451	0.003
217.833	0.0029
218.215	0.0039
218.597	0.0031
218.979	0.0044
219.361	0.004
219.742	0.0022
220.124	0.0019
220.506	-0.0002
220.888	-0.0002
221.27	0.001
221.651	0.0023
222.033	0.0042
222.415	0.0035
222.796	0.0031
223.178	0.0012
223.559	0.0016
223.941	0.0006
224.322	0.0006
224.704	0.0001
225.085	0.0013
225.466	0.0019
225.848	0.001
226.229	0.0012
226.61	0.0011
226.992	0.0007
227.373	0.0003
227.754	-0.0007
228.135	-0.0002
228.516	0.0014
228.897	0.0043
229.278	0.0043
229.659	0.0018
230.04	0.0001
230.421	-0.0001
230.802	0.0021
231.183	0.0028
231.564	0.0021
231.944	0.0009
232.325	0.0002
232.706	0.0016
233.087	0.0019
233.467	0.0007
233.848	0.0002
234.229	-0.0006
234.609	0.0004
234.99	0.0009
235.37	0.0011
235.751	0.0018
236.131	0.0005
236.511	0.0012
236.892	0.002
237.272	0.0012
237.652	0.002
238.033	0.0004
238.413	0.0021
238.793	0.0023
239.173	0.0035
239.553	0.003
239.933	0.0012
240.313	0.0009
240.694	0.0022
241.074	0.0015
241.453	0.0023
241.833	0.0038
242.213	0.0047
242.593	0.0015
242.973	0
243.353	0.0008
243.732	0.0035
244.112	0.0023
244.492	0.0019
244.872	0.0001
245.251	0.0017
245.631	0.0011
246.01	0.0017
246.39	0.001
246.769	0.0016
247.149	0.0023
247.528	0.0019
247.908	0.0017
248.287	0.0016
248.666	0.0016
249.045	0.0015
249.425	-0.0002
249.804	0.0008
250.183	0.0007
250.562	0.0031
250.941	0.0029
251.32	0.0042
251.699	0.0023
252.078	0.0029
252.457	0.0006
252.836	0.0022
253.215	-0.0006
253.594	0.001
253.973	-0.0012
254.352	-0.0006
254.731	-0.001
255.109	0.0013
255.488	0.0022
255.867	0.0024
256.245	0.0015
256.624	0.0009
257.002	0.0009
257.381	0.0025
257.759	0.0032
258.138	0.0028
258.516	0.0011
258.895	0.0005
259.273	-0.0007
259.651	0.0007
260.03	0.0003
260.408	0.0021
260.786	0.0012
261.164	0.0017
261.542	0
261.921	-0.0013
262.299	-0.0008
262.677	0.0001
263.055	0.0013
263.433	0.0019
263.811	0.0012
264.188	-0.0001
264.566	-0.0016
264.944	-0.0015
265.322	-0.0002
265.7	0.0008
266.077	0.0015
266.455	-0.0001
266.833	-0.0008
267.21	-0.0008
267.588	0.0009
267.966	0.0002
268.343	0.0007
268.721	-0
269.098	0.0009
269.475	0.001
269.853	0.0017
270.23	0.0002
270.607	0.0003
270.985	-0.0008
271.362	0.0015
271.739	-0.0002
272.116	-0.0002
272.494	-0.0017
272.871	-0.0002
273.248	-0.0005
273.625	0.0012
274.002	0.0007
274.379	0.0021
274.756	-0.0004
275.132	-0.0004
275.509	-0.0017
275.886	-0.0003
276.263	0.0005
276.64	-0.0001
277.016	-0.0005
277.393	-0.0005
277.77	0.0016
278.146	0.0024
278.523	0.0016
278.899	0.0002
279.276	0.0001
279.652	0.0002
280.029	0.0008
280.405	0.0004
280.782	-0.0008
281.158	-0.0011
281.534	-0.0013
281.91	0.0002
282.287	0.0009
282.663	0.002
283.039	0.0016
283.415	0.0017
283.791	0.0012
284.167	0.0015
284.543	0.0015
284.919	0.0005
285.295	0.0004
285.671	-0.0009
286.047	-0.0007
286.423	-0.0013
286.799	0.001
287.174	0.002
287.55	0.0026
287.926	0.0013
288.301	0.0007
288.677	0.0003
289.053	0.0009
289.428	0.0011
289.804	0.0015
290.179	0.0005
290.555	0.0008
290.93	0.0009
291.305	0.0007
291.681	0.0005
292.056	-0.0002
292.431	-0.0007
292.806	-0.0009
293.182	-0.0006
293.557	0.0016
293.932	0.0011
294.307	-0
294.682	-0.0016
295.057	-0.0014
295.432	0.0009
295.807	0.001
296.182	0.002
296.557	-0
296.932	-0.0002
297.306	-0.0006
297.681	0.0004
298.056	0.0013
298.43	0.0001
298.805	0.0003
299.18	-0.0003
299.554	0.0014
299.929	0.0015
300.303	0.0021
300.678	0.0013
301.052	0.0019
301.427	0.0015
301.801	0.0014
302.175	0.0016
302.55	0.0013
302.924	0.0015
303.298	0.0006
303.672	0.0013
304.046	0.001
304.421	0.0001
304.795	0.0017
305.169	0.0019
305.543	0.0041
305.917	0.0026
306.291	0.0031
306.664	0.0027
307.038	0.0028
307.412	0.0016
307.786	0.0005
308.16	0.0003
308.533	0.0009
308.907	0.0017
309.281	0.002
309.654	0.0035
310.028	0.003
310.401	0.002
310.775	0.0019
311.148	0.0012
311.522	0.0016
311.895	0.0013
312.268	0.0011
312.642	0.0007
313.015	-0.0006
313.388	0.0024
313.761	0.0022
314.135	0.0021
314.508	0.0014
314.881	0.0014
315.254	0.0028
315.627	0.0016
316	0.0009
316.373	0.0013
316.746	0.0009
317.118	0.0012
317.491	0.0007
317.864	0.0019
318.237	0.0019
318.61	0.0006
318.982	0.0003
319.355	0.0019
319.727	0.0028
320.1	0.0021
320.473	0.0011
320.845	0.0005
321.218	0.0011
321.59	0.0008
321.962	-0.0003
322.335	-0.0011
322.707	-0.0018
323.079	0.0002
323.452	0.0005
323.824	0.0012
324.196	0
324.568	0
324.94	0.0003
325.312	0.0017
325.684	0.0012
326.056	0.0008
326.428	0.0002
326.8	0.0003
327.172	0.0002
327.544	-0.0003
327.915	0.0013
328.287	0.002
328.659	0.0001
329.031	-0.0011
329.402	-0.0019
329.774	-0.0001
330.145	0.0015
330.517	0.0018
330.888	0.0018
331.26	0.0017
331.631	0.0011
332.003	0.002
332.374	-0.0005
332.745	0.0007
333.117	-0.0011
333.488	-0.0006
333.859	-0.0025
334.23	-0.0016
334.601	-0.0011
334.972	0.0003
335.343	-0
335.714	0.0007
336.085	0.0008
336.456	0.0016
336.827	0
337.198	-0.0009
337.569	-0.0016
337.94	-0.0024
338.31	-0.0021
338.681	-0.0014
339.052	0.0012
339.422	0.0026
339.793	0.0013
340.164	-0.0008
340.534	-0.0015
340.905	-0.0014
341.275	0.0005
341.645	0.0007
342.016	-0.0001
342.386	-0.0002
342.756	0.0009
343.127	0.0012
343.497	0.0024
343.867	0.0001
344.237	0.0008
344.607	0
344.977	0.0022
345.347	0.0013
345.717	0.0003
346.087	-0.0018
346.457	-0.0014
346.827	-0.0017
347.197	-0.0011
347.567	0.001
347.936	0.0005
348.306	-0.0021
348.676	-0.0037
349.046	-0.0032
349.415	0.0001
349.785	-0.0018
350.154	-0.0005
350.524	-0.0019
350.893	-0.0007
351.263	-0.0014
351.632	-0.0014
352.001	0.0005
352.371	0.0005
352.74	0.0018
353.109	0.0028
353.478	0.0016
353.847	0.0027
354.217	-0.0001
354.586	0.0005
354.955	-0.0008
355.324	0
355.693	-0.0009
356.062	-0.0016
356.43	-0.002
356.799	0.0002
357.168	0.0008
357.537	0.0005
357.906	-0.001
358.274	-0.0006
358.643	0.0007
359.011	0.0006
359.38	0.0004
359.749	-0.0007
360.117	-0.001
360.486	0.0001
360.854	0.0008
361.222	0.001
361.591	-0
361.959	-0.0014
362.327	0.0011
362.695	0.0002
363.064	0.0007
363.432	-0.001
363.8	0.0007
364.168	0.0018
364.536	0.0018
364.904	0.0003
365.272	-0.0016
365.64	-0.0024
366.008	-0.0037
366.376	-0.0025
366.743	-0.0036
367.111	-0.0034
367.479	-0.0033
367.847	-0.0015
368.214	-0.0013
368.582	-0.0025
368.949	-0.0038
369.317	-0.0031
369.684	-0.0011
370.052	0.0007
370.419	0.0015
370.787	0.0001
371.154	-0.0005
371.521	-0.0023
371.889	-0.0024
372.256	-0.0036
372.623	-0.003
372.99	-0.0028
373.357	-0.0031
373.724	-0.0033
374.091	-0.0029
374.458	-0.0016
374.825	-0.0015
375.192	-0.0018
375.559	-0.0013
375.926	-0.0019
376.293	-0.0019
376.659	-0.0043
377.026	-0.0043
377.393	-0.0049
377.759	-0.0028
378.126	-0.0031
378.492	-0.0022
378.859	-0.0034
379.225	-0.0017
379.592	-0.002
379.958	-0.0008
380.325	-0.0022
380.691	-0.0023
381.057	-0.0035
381.423	-0.004
381.79	-0.0034
382.156	-0.0045
382.522	-0.0012
382.888	-0.0005
383.254	0.0013
383.62	-0.0016
383.986	-0.0021
384.352	-0.0024
384.718	-0.0004
385.084	-0.0029
385.449	-0.0028
385.815	-0.0034
386.181	-0.0007
386.547	-0.0008
386.912	-0.0036
387.278	-0.0039
387.643	-0.0023
388.009	0.0014
388.374	0.0007
388.74	0.0013
389.105	-0.0019
389.471	-0.0003
389.836	0.0005
390.201	0.0036
390.566	0.0033
390.932	0.0029
391.297	0.0035
391.662	0.0012
392.027	-0.0002
392.392	-0.0033
392.757	-0.0028
393.122	-0.0033
393.487	-0.001
393.852	-0.0003
394.217	-0.0015
394.582	-0.0016
394.946	0.0007
395.311	0.0028
395.676	0.0022
396.04	-0.0025
396.405	-0.0041
396.77	-0.0052
397.134	-0.004
397.499	-0.0041
397.863	-0.0036
398.227	-0.0041
398.592	-0.0024
398.956	-0.002
399.32	-0.001
399.685	-0.0023
400.049	-0.0032
400.413	-0.0039
400.777	-0.0022
401.141	-0.0016
401.505	-0.0009
401.869	-0.0046
402.233	-0.0045
402.597	-0.0054
402.961	-0.0022
403.325	-0.0009
403.689	0.0016
404.053	0.0033
404.416	0.0008
404.78	-0.0007
405.144	-0.0022
405.507	-0.0011
405.871	-0.0025
406.234	-0.0038
406.598	-0.0023
406.961	-0.0017
407.325	-0.0014
407.688	-0.0017
408.051	0.0002
408.415	-0.0008
408.778	-0.0013
409.141	-0.0028
409.504	-0.0008
409.867	-0.0003
410.23	0.0002
410.593	-0
410.956	-0.0023
411.319	-0.0039
411.682	-0.0045
412.045	-0.0042
412.408	-0.0033
412.771	-0.0028
413.134	-0.0022
413.496	-0.0039
413.859	-0.0047
414.222	-0.0045
414.584	0.0004
414.947	-0.0001
415.309	-0.0003
415.672	-0.0044
416.034	-0.0046
416.396	-0.0038
416.759	-0.0019
417.121	-0.0018
417.483	-0.002
417.846	-0.0047
418.208	-0.0032
418.57	-0.0039
418.932	-0.0033
419.294	-0.004
419.656	-0.0031
420.018	0.0002
420.38	0.0021
420.742	0.0014
421.104	-0.0002
421.466	0.0001
421.827	0.002
422.189	0.0015
422.551	-0.0011
422.912	-0.0045
423.274	-0.002
423.636	-0.0029
423.997	-0.0008
424.359	-0.0023
424.72	-0.0005
425.081	0.0011
425.443	-0.0012
425.804	-0.0016
426.165	-0.004
426.527	-0.0001
426.888	0.0009
427.249	0.0035
427.61	0.0048
427.971	0.0029
428.332	0.0007
428.693	-0.0034
429.054	-0.0043
429.415	-0.0044
429.776	-0.0011
430.137	0.0017
430.498	0.0013
430.858	-0.0007
431.219	-0.0014
431.58	-0.0001
431.94	-0
432.301	0.0013
432.661	-0.0008
433.022	-0.0004
433.382	-0.0022
433.743	0.0016
434.103	0.0016
434.463	0.0016
434.824	-0.0018
435.184	-0.0012
435.544	-0.0026
435.904	-0.0035
436.264	-0.0043
436.624	-0.0026
436.985	-0.001
437.345	-0
437.704	-0.0018
438.064	-0.0034
438.424	-0.0048
438.784	-0.0025
439.144	0.0002
439.504	-0.0003
439.863	-0.0015
440.223	-0.0015
440.583	-0.0021
440.942	-0.0012
441.302	-0.0035
441.661	-0.0028
442.021	-0.003
442.38	-0.0021
442.739	-0.002
443.099	-0.0026
443.458	-0.0019
443.817	0.0007
444.176	0.0026
444.536	0.0022
444.895	-0.0013
445.254	-0.0029
445.613	-0.0021
445.972	-0.0001
446.331	0.0001
446.69	-0.0015
447.049	-0.0006
447.407	-0.0006
447.766	0.0001
448.125	-0.0031
448.484	-0.0035
448.842	-0.0016
449.201	0.0003
449.559	0.0008
449.918	-0.0021
450.276	-0.005
450.635	-0.0036
450.993	-0.0016
451.352	-0.0007
451.71	-0.0006
452.068	-0.0016
452.426	0.0012
452.785	0.0003
453.143	0.0018
453.501	0.001
453.859	-0.0001
454.217	-0.0014
454.575	-0.003
454.933	-0.0036
455.291	-0.0036
455.649	0.0017
456.006	0.0022
456.364	0.0023
456.722	-0.0024
457.079	0.0004
457.437	0.0024
457.795	0.0012
458.152	-0.0025
458.51	-0.0044
458.867	-0.0042
459.225	-0.003
459.582	-0.0028
459.939	-0.0031
460.297	-0.0058
460.654	-0.007
461.011	-0.0078
461.368	-0.006
461.725	-0.0053
462.082	-0.0021
462.44	-0.0021
462.797	-0.0043
463.153	-0.0054
463.51	-0.0053
463.867	-0.002
464.224	-0.0011
464.581	-0.0015
464.938	-0.0027
465.294	-0.0042
465.651	-0.0005
466.008	0.0021
466.364	0.002
466.721	0.0016
467.077	-0.0002
467.434	0.0011
467.79	0.0015
468.146	0.0018
468.503	0.003
468.859	-0.0003
469.215	-0.0023
469.571	-0.007
469.927	-0.0049
470.284	-0.0048
470.64	-0.002
470.996	-0.0028
471.352	-0.002
471.707	-0.0023
472.063	-0.0045
472.419	-0.0029
472.775	-0.0032
473.131	-0.0033
473.486	-0.005
473.842	-0.0035
474.198	-0.0012
474.553	-0.0022
474.909	-0.0021
475.264	-0.0032
475.62	-0.0035
475.975	-0.0049
476.331	-0.0046
476.686	-0.0015
477.041	0.0005
477.396	-0.0011
477.752	-0.0014
478.107	-0.0013
478.462	0.0016
478.817	-0.0015
479.172	-0.0049
479.527	-0.0057
479.882	-0.0063
480.237	-0.0028
480.591	-0.0031
480.946	0.0009
481.301	-0.0012
481.656	-0.0004
482.01	-0.0009
482.365	0.0005
482.72	-0.0004
483.074	0.0005
483.429	-0.0019
483.783	-0.0032
484.137	-0.0055
484.492	-0.004
484.846	-0.0024
485.2	-0.0028
485.555	-0.0024
485.909	-0.0007
486.263	0.0002
486.617	-0.0006
486.971	-0.0032
487.325	-0.001
487.679	-0.0016
488.033	-0.0017
488.387	-0.0032
488.741	-0.0024
489.094	-0.0025
489.448	-0.0044
489.802	-0.0037
490.156	-0.0047
490.509	-0.0035
490.863	-0.0047
491.216	-0.0036
491.57	-0.0029
491.923	-0.0023
492.277	-0.003
492.63	-0.0045
492.983	-0.0067
493.337	-0.0053
493.69	-0.0034
494.043	-0.0034
494.396	-0.0039
494.749	-0.0033
495.102	-0.0025
495.455	-0.0017
495.808	-0.003
496.161	-0.0004
496.514	-0.0002
496.867	-0.0007
497.22	-0.001
497.572	-0.0018
497.925	-0.002
498.278	-0.0024
498.63	-0.0027
498.983	-0.0001
499.335	0.0009
499.688	0.0017
500.04	-0.0012
500.393	-0.0031
500.745	-0.0045
501.097	-0.0025
501.449	-0.0029
501.802	-0.0023
502.154	-0.0003
502.506	0.0007
502.858	-0.0003
503.21	-0.0013
503.562	-0.0023
503.914	-0.0018
504.266	-0.0023
504.618	-0.003
504.969	-0.0007
505.321	-0.0023
505.673	-0.0011
506.025	-0.0042
506.376	-0.0032
506.728	-0.0071
507.079	-0.0043
507.431	-0.0051
507.782	-0.0015
508.134	-0.0033
508.485	-0.0054
508.836	-0.0058
509.188	-0.0052
509.539	-0.0013
509.89	-0.0011
510.241	-0.0044
510.592	-0.0044
510.943	-0.0018
511.294	-0.0005
511.645	-0.0009
511.996	-0.0052
512.347	-0.0046
512.698	-0.0041
513.049	-0.0034
513.399	-0
513.75	-0.0036
514.101	-0.0009
514.451	-0.0038
514.802	-0.0033
515.152	-0.0043
515.503	-0.0033
515.853	0.0004
516.203	-0.0009
516.554	-0.0006
516.904	-0.003
517.254	-0.0031
517.604	-0.003
517.955	-0.0024
518.305	-0.0032
518.655	-0.0069
519.005	-0.0055
519.355	-0.0033
519.705	-0.0002
520.055	-0.001
520.404	-0.0001
520.754	-0.0026
521.104	-0.004
521.454	-0.0057
521.803	-0.0035
522.153	-0.0023
522.502	-0.0046
522.852	-0.0066
523.201	-0.0073
523.551	-0.0051
523.9	-0.0051
524.249	-0.0042
524.599	-0.006
524.948	-0.0046
525.297	-0.0056
525.646	-0.0021
525.995	-0.0025
526.344	-0.0034
526.694	-0.0039
527.042	-0.0031
527.391	-0.0029
527.74	-0.0052
528.089	-0.0074
528.438	-0.0045
528.787	-0.0023
529.135	0.0004
529.484	-0.0017
529.833	-0.0003
530.181	-0.0026
530.53	-0.0025
530.878	-0.005
531.227	-0.0047
531.575	-0.0055
531.923	-0.0062
532.271	-0.0059
532.62	-0.0054
532.968	-0.0033
533.316	-0.0032
533.664	-0.0041
534.012	-0.0064
534.36	-0.0053
534.708	-0.0058
535.056	-0.0029
535.404	-0.0033
535.752	-0.0015
536.1	-0.0041
536.447	-0.0062
536.795	-0.006
537.143	-0.005
537.49	-0.0046
537.838	-0.0058
538.185	-0.0076
538.533	-0.0097
538.88	-0.0098
539.228	-0.0081
539.575	-0.0032
539.922	-0.002
540.269	-0.003
540.617	-0.0045
540.964	-0.0052
541.311	-0.0063
541.658	-0.0089
542.005	-0.0082
542.352	-0.0083
542.699	-0.0083
543.045	-0.0095
543.392	-0.0066
543.739	-0.0055
544.086	-0.0059
544.432	-0.0079
544.779	-0.0054
545.126	-0.0053
545.472	-0.0073
545.819	-0.011
546.165	-0.0087
546.512	-0.0064
546.858	-0.0031
547.204	-0.0029
547.55	-0.0013
547.897	-0.0021
548.243	-0.0045
548.589	-0.0061
548.935	-0.0071
549.281	-0.0055
549.627	-0.0049
549.973	-0.004
550.319	-0.0031
550.665	-0.0016
551.01	-0.002
551.356	-0.0036
551.702	-0.0061
552.048	-0.0081
552.393	-0.0071
552.739	-0.0069
553.084	-0.0015
553.43	-0.0035
553.775	-0.0047
554.12	-0.0071
554.466	-0.0024
554.811	0.0012
555.156	-0.0008
555.502	-0.0045
555.847	-0.0057
556.192	-0.0056
556.537	-0.0073
556.882	-0.0056
557.227	-0.007
557.572	-0.0063
557.917	-0.0082
558.261	-0.007
558.606	-0.0075
558.951	-0.0091
559.295	-0.0081
559.64	-0.0063
559.985	-0.0063
560.329	-0.0087
560.674	-0.0097
561.018	-0.009
561.363	-0.0116
561.707	-0.0128
562.051	-0.0114
562.395	-0.0062
562.74	-0.0074
563.084	-0.0082
563.428	-0.0086
563.772	-0.003
564.116	-0.0047
564.46	-0.0055
564.804	-0.0085
565.148	-0.0082
565.492	-0.0084
565.835	-0.0087
566.179	-0.0078
566.523	-0.0053
566.866	-0.0053
567.21	-0.0034
567.554	-0.0071
567.897	-0.0055
568.24	-0.0095
568.584	-0.0059
568.927	-0.0066
569.271	-0.0072
569.614	-0.0069
569.957	-0.0056
570.3	-0.0034
570.643	-0.0039
570.986	-0.0062
571.329	-0.0073
571.672	-0.008
572.015	-0.0082
572.358	-0.0046
572.701	-0.0045
573.044	-0.0034
573.387	-0.0065
573.729	-0.0053
574.072	-0.0041
574.414	-0.0047
574.757	-0.0045
575.099	-0.0076
575.442	-0.0086
575.784	-0.0084
576.127	-0.0038
576.469	-0.0018
576.811	-0.0045
577.153	-0.0051
577.496	-0.0048
577.838	-0.0016
578.18	-0.0041
578.522	-0.0052
578.864	-0.0075
579.206	-0.0048
579.548	-0.0046
579.889	-0.006
580.231	-0.0038
580.573	-0.0007
580.915	-0.0023
581.256	-0.0105
581.598	-0.0136
581.939	-0.0148
582.281	-0.0059
582.622	-0.0061
582.964	-0.0051
583.305	-0.0065
583.646	-0.0066
583.988	-0.0016
584.329	-0.0012
584.67	-0.0053
585.011	-0.0088
585.352	-0.0131
585.693	-0.0093
586.034	-0.0097
586.375	-0.01
586.716	-0.0085
587.057	-0.0082
587.398	-0.0083
587.738	-0.006
588.079	-0.0073
588.42	-0.0052
588.76	-0.0066
589.101	-0.0067
589.441	-0.0087
589.782	-0.0097
590.122	-0.0059
590.463	-0.0048
590.803	-0.0071
591.143	-0.0078
591.483	-0.0072
591.823	-0.0064
592.164	-0.006
592.504	-0.0043
592.844	-0.0037
593.184	-0.0069
593.523	-0.0075
593.863	-0.0074
594.203	-0.0064
594.543	-0.004
594.883	-0.008
595.222	-0.0071
595.562	-0.0033
595.901	-0.002
596.241	-0.0053
596.58	-0.0111
596.92	-0.0134
597.259	-0.0125
597.599	-0.0125
597.938	-0.0084
598.277	-0.0081
598.616	-0.0115
598.955	-0.0116
599.295	-0.0108
599.634	-0.0064
599.973	-0.0057
600.312	-0.0078
600.65	-0.0076
600.989	-0.01
601.328	-0.006
601.667	0.0011
602.005	-0.0009
602.344	-0.0042
602.683	-0.0079
603.021	-0.0059
603.36	-0.0072
603.698	-0.0099
604.037	-0.0117
604.375	-0.0108
604.713	-0.0089
605.052	-0.0097
605.39	-0.0082
605.728	-0.0096
606.066	-0.0005
606.404	0.0015
606.742	-0.002
607.08	-0.0043
607.418	-0.0104
607.756	-0.008
608.094	-0.009
608.431	-0.0065
608.769	-0.0039
609.107	-0.0071
609.444	-0.0056
609.782	-0.0096
610.12	-0.0072
610.457	-0.0065
610.794	-0.0065
611.132	-0.0089
611.469	-0.0084
611.806	-0.0065
612.144	-0.0094
612.481	-0.0103
612.818	-0.0078
613.155	-0.0043
613.492	-0.0047
613.829	-0.0071
614.166	-0.004
614.503	-0.0035
614.84	-0.0059
615.176	-0.0071
615.513	-0.0048
615.85	-0.0025
616.187	-0.0015
616.523	-0.0056
616.86	-0.0073
617.196	-0.0076
617.533	-0.0032
617.869	-0.0051
618.205	-0.0059
618.542	-0.0063
618.878	-0.0061
619.214	-0.0052
619.55	-0.0082
619.886	-0.0077
620.222	-0.0125
620.558	-0.0122
620.894	-0.0154
621.23	-0.0128
621.566	-0.0125
621.902	-0.0078
622.238	-0.0102
622.573	-0.0054
622.909	-0.0061
623.244	-0.0066
623.58	-0.0109
623.916	-0.0135
624.251	-0.0096
624.586	-0.0071
624.922	-0.0055
625.257	-0.0081
625.592	-0.0122
625.927	-0.0107
626.263	-0.0078
626.598	-0.0079
626.933	-0.0108
627.268	-0.0116
627.603	-0.0078
627.938	-0.0105
628.272	-0.0075
628.607	-0.0093
628.942	-0.0074
629.277	-0.0105
629.611	-0.0142
629.946	-0.016
630.281	-0.0197
630.615	-0.0187
630.949	-0.0155
631.284	-0.0103
631.618	-0.0089
631.953	-0.0081
632.287	-0.0096
632.621	-0.0102
632.955	-0.013
633.289	-0.0137
633.623	-0.0151
633.957	-0.0133
634.291	-0.0113
634.625	-0.0061
634.959	-0.0071
635.293	-0.0082
635.627	-0.01
635.96	-0.0064
636.294	-0.005
636.627	-0.0067
636.961	-0.0065
637.294	-0.0063
637.628	-0.0054
637.961	-0.0072
638.295	-0.0097
638.628	-0.0045
638.961	-0.0014
639.294	-0.001
639.628	-0.0088
639.961	-0.0118
640.294	-0.0144
640.627	-0.0154
640.96	-0.0138
641.293	-0.01
641.625	-0.0012
641.958	-0.0051
642.291	-0.005
642.624	-0.0102
642.956	-0.0103
643.289	-0.0129
643.621	-0.0113
643.954	-0.0095
644.286	-0.0044
644.619	-0.006
644.951	-0.0051
645.283	-0.0109
645.616	-0.0109
645.948	-0.0092
646.28	-0.0075
646.612	-0.0122
646.944	-0.0129
647.276	-0.0154
647.608	-0.0128
647.94	-0.0134
648.272	-0.013
648.603	-0.0142
648.935	-0.0144
649.267	-0.0118
649.598	-0.0083
649.93	-0.0109
650.261	-0.0119
650.593	-0.0132
650.924	-0.01
651.256	-0.0089
651.587	-0.0055
651.918	-0.0073
652.25	-0.006
652.581	-0.0083
652.912	-0.006
653.243	-0.0104
653.574	-0.0101
653.905	-0.0127
654.236	-0.0109
654.567	-0.0109
654.897	-0.0115
655.228	-0.0083
655.559	-0.0104
655.89	-0.007
656.22	-0.0088
656.551	-0.0088
656.881	-0.0083
657.212	-0.0066
657.542	-0.0053
657.872	-0.0104
658.203	-0.0154
658.533	0.0016
658.863	0.0134
659.193	-0.0027
659.523	-0.0086
659.853	-0.0255
660.183	-0.017
660.513	-0.0148
660.843	-0.0114
661.173	-0.0131
661.503	-0.0142
661.833	-0.0152
662.162	-0.0082
662.492	-0.0061
662.822	-0.0056
663.151	-0.0136
663.481	-0.0127
663.81	-0.0137
664.139	-0.0075
664.469	-0.0075
664.798	-0.0116
665.127	-0.0109
665.456	-0.0109
665.785	-0.0021
666.114	-0.0024
666.443	-0.004
666.772	-0.009
667.101	-0.0106
667.43	-0.0123
667.759	-0.0112
668.088	-0.0132
668.416	-0.0162
668.745	-0.0187
669.074	-0.0187
669.402	-0.0156
669.731	-0.0184
670.059	-0.0135
670.388	-0.0143
670.716	-0.011
671.044	-0.0133
671.372	-0.0122
671.701	-0.0109
672.029	-0.0121
672.357	-0.0133
672.685	-0.0114
673.013	-0.0118
673.341	-0.007
673.669	-0.0066
673.996	-0.0029
674.324	-0.0012
674.652	0.0007
674.98	0.0001
675.307	-0.0091
675.635	-0.011
675.962	-0.0119
676.29	-0.0082
676.617	-0.0105
676.945	-0.0104
677.272	-0.0094
677.599	-0.011
677.926	-0.0104
678.253	-0.013
678.581	-0.0155
678.908	-0.0192
679.235	-0.0132
679.561	-0.0118
679.888	-0.0156
680.215	-0.0167
680.542	-0.0119
680.869	-0.0089
681.195	-0.0129
681.522	-0.0163
681.849	-0.0163
682.175	-0.015
682.502	-0.0146
682.828	-0.0141
683.154	-0.0131
683.481	-0.0117
683.807	-0.0125
684.133	-0.0137
684.459	-0.0126
684.785	-0.0114
685.111	-0.0073
685.437	-0.0079
685.763	-0.0064
686.089	-0.0109
686.415	-0.0107
686.741	-0.0082
687.067	-0.0037
687.392	-0.0028
687.718	-0.0045
688.043	-0.0076
688.369	-0.0117
688.694	-0.0125
689.02	-0.0136
689.345	-0.0107
689.67	-0.0112
689.996	-0.0058
690.321	-0.0039
690.646	-0.0047
690.971	-0.0063
691.296	-0.012
691.621	-0.0109
691.946	-0.0104
692.271	-0.0095
692.596	-0.0063
692.921	-0.0105
693.245	-0.0083
693.57	-0.0126
693.895	-0.0113
694.219	-0.0129
694.544	-0.0113
694.868	-0.0094
695.193	-0.0095
695.517	-0.0068
695.841	-0.0127
696.166	-0.0132
696.49	-0.0181
696.814	-0.0098
697.138	-0.0088
697.462	-0.0062
697.786	-0.0102
698.11	-0.0082
698.434	-0.0051
698.758	-0.0105
699.081	-0.0126
699.405	-0.02
699.729	-0.0118
700.052	-0.0061
700.376	-0.0056
700.7	-0.007
701.023	-0.0115
701.346	-0.0098
701.67	-0.0115
701.993	-0.0045
702.316	-0.0055
702.639	-0.0053
702.963	-0.0103
703.286	-0.0119
703.609	-0.0153
703.932	-0.0192
704.255	-0.0151
704.578	-0.013
704.9	-0.0107
705.223	-0.0122
705.546	-0.0041
705.868	-0.0036
706.191	-0.0051
706.514	-0.0113
706.836	-0.0121
707.159	-0.0096
707.481	-0.0101
707.803	-0.0119
708.126	-0.0129
708.448	-0.0147
708.77	-0.0195
709.092	-0.0196
709.414	-0.0145
709.736	-0.0075
710.058	-0.0025
710.38	-0.0054
710.702	-0.0063
711.024	-0.0133
711.345	-0.0167
711.667	-0.0178
711.989	-0.0139
712.31	-0.0097
712.632	-0.0084
712.953	-0.008
713.275	-0.0101
713.596	-0.0089
713.917	-0.0166
714.239	-0.0144
714.56	-0.0172
714.881	-0.0135
715.202	-0.0173
715.523	-0.0176
715.844	-0.0175
716.165	-0.0157
716.486	-0.0083
716.807	-0.0026
717.128	-0.0005
717.448	-0.0049
717.769	-0.0089
718.09	-0.0149
718.41	-0.0169
718.731	-0.013
719.051	-0.011
719.372	-0.0095
719.692	-0.0164
720.012	-0.0107
720.332	-0.0161
720.653	-0.0125
720.973	-0.015
721.293	-0.0068
721.613	-0.0098
721.933	-0.0101
722.253	-0.0102
722.573	-0.0052
722.892	-0.0016
723.212	-0.0109
723.532	-0.01
723.851	-0.0145
724.171	-0.0119
724.491	-0.014
724.81	-0.0088
725.129	-0.0077
725.449	-0.0105
725.768	-0.0132
726.087	-0.0111
726.407	-0.0119
726.726	-0.0119
727.045	-0.0109
727.364	-0.0083
727.683	-0.0095
728.002	-0.0137
728.321	-0.0151
728.64	-0.0144
728.958	-0.0141
729.277	-0.0113
729.596	-0.0099
729.914	-0.0055
730.233	-0.0078
730.551	-0.0102
730.87	-0.0126
731.188	-0.011
731.507	-0.0122
731.825	-0.0147
732.143	-0.0154
732.461	-0.0108
732.779	-0.0072
733.097	-0.0117
733.415	-0.0159
733.733	-0.0159
734.051	-0.0145
734.369	-0.0159
734.687	-0.0145
735.005	-0.0149
735.322	-0.0121
735.64	-0.0137
735.957	-0.0126
736.275	-0.018
736.592	-0.0174
736.91	-0.0127
737.227	-0.0069
737.544	-0.0083
737.862	-0.0095
738.179	-0.0095
738.496	-0.0103
738.813	-0.0115
739.13	-0.0142
739.447	-0.015
739.764	-0.0114
740.081	-0.0114
740.398	-0.013
740.714	-0.0167
741.031	-0.0153
741.348	-0.0112
741.664	-0.0116
741.981	-0.0061
742.297	-0.0088
742.614	-0.0096
742.93	-0.0128
743.246	-0.0137
743.563	-0.0155
743.879	-0.0189
744.195	-0.0158
744.511	-0.0114
744.827	-0.0087
745.143	-0.0106
745.459	-0.0144
745.775	-0.0178
746.091	-0.017
746.406	-0.0134
746.722	-0.0079
747.038	-0.0081
747.353	-0.0123
747.669	-0.0142
747.984	-0.0118
748.3	-0.0098
748.615	-0.0116
748.93	-0.0155
749.246	-0.0173
749.561	-0.0153
749.876	-0.0127
750.191	-0.0086
750.506	-0.0068
750.821	-0.0074
751.136	-0.0117
751.451	-0.0117
751.766	-0.0139
752.08	-0.0077
752.395	-0.0068
752.71	-0.0031
753.024	-0.0069
753.339	-0.0105
753.653	-0.0161
753.968	-0.0175
754.282	-0.0189
754.596	-0.0157
754.911	-0.0126
755.225	-0.0121
755.539	-0.0167
755.853	-0.0205
756.167	-0.0203
756.481	-0.0089
756.795	-0.0037
757.109	-0.0027
757.423	-0.0086
757.736	-0.0122
758.05	-0.0151
758.364	-0.0118
758.677	-0.0112
758.991	-0.01
759.304	-0.0127
759.618	-0.0098
759.931	-0.0105
760.244	-0.0086
760.558	-0.0076
760.871	-0.008
761.184	-0.0136
761.497	-0.025
761.81	-0.0264
762.123	-0.0166
762.436	-0.0092
762.749	-0.0082
763.062	-0.0099
763.374	-0.011
763.687	-0.0061
764	-0.0082
764.312	-0.0055
764.625	-0.0105
764.937	-0.0121
765.25	-0.017
765.562	-0.0136
765.874	-0.0106
766.186	-0.0085
766.499	-0.013
766.811	-0.0212
767.123	-0.0163
767.435	-0.011
767.747	-0.0014
768.059	-0.0023
768.37	-0.0013
768.682	-0.0084
768.994	-0.0126
769.306	-0.0166
769.617	-0.0153
769.929	-0.0075
770.24	-0.0041
770.552	-0.0015
770.863	-0.0115
771.174	-0.0139
771.486	-0.0151
771.797	-0.0127
772.108	-0.0148
772.419	-0.013
772.73	-0.0115
773.041	-0.013
773.352	-0.012
773.663	-0.0133
773.974	-0.007
774.285	-0.0096
774.595	-0.0111
774.906	-0.0119
775.217	-0.0147
775.527	-0.0112
775.838	-0.0109
776.148	-0.0095
776.458	-0.0144
776.769	-0.0174
777.079	-0.0163
777.389	-0.0152
777.699	-0.0182
778.009	-0.0189
778.319	-0.0125
778.629	-0.0045
778.939	-0.0016
779.249	-0.0022
779.559	-0.0094
779.869	-0.0143
780.178	-0.0208
780.488	-0.0188
780.798	-0.0166
781.107	-0.0126
781.417	-0.0135
781.726	-0.0138
782.035	-0.0145
782.345	-0.013
782.654	-0.0119
782.963	-0.0118
783.272	-0.0135
783.581	-0.0088
783.89	-0.0037
784.199	0
784.508	-0.0051
784.817	-0.0108
785.126	-0.0124
785.434	-0.01
785.743	-0.0075
786.052	-0.0105
786.36	-0.0134
786.669	-0.0182
786.977	-0.0175
787.285	-0.0134
787.594	-0.0067
787.902	-0.008
788.21	-0.0114
788.518	-0.0144
788.826	-0.0143
789.135	-0.0194
789.442	-0.0232
789.75	-0.0269
790.058	-0.0196
790.366	-0.0159
790.674	-0.0166
790.981	-0.0133
791.289	-0.0124
791.597	-0.0053
791.904	-0.0098
792.212	-0.0112
792.519	-0.0183
792.826	-0.0181
793.134	-0.0162
793.441	-0.0147
793.748	-0.0166
794.055	-0.0211
794.362	-0.0221
794.669	-0.0204
794.976	-0.0213
795.283	-0.0116
795.59	-0.0112
795.897	-0.0092
796.203	-0.0123
796.51	-0.0096
796.817	-0.0053
797.123	-0.0112
797.43	-0.0165
797.736	-0.0202
798.042	-0.0219
798.349	-0.02
798.655	-0.019
798.961	-0.013
799.267	-0.0087
799.573	-0.0069
799.879	-0.0114
800.185	-0.0124
800.491	-0.0129
800.797	-0.0148
801.103	-0.0163
801.408	-0.0136
801.714	-0.0083
802.02	-0.0064
802.325	-0.0079
802.631	-0.0083
802.936	-0.0119
803.242	-0.0117
803.547	-0.0135
803.852	-0.0097
804.157	-0.0069
804.462	-0.0058
804.768	-0.007
805.073	-0.0151
805.378	-0.0139
805.682	-0.0157
805.987	-0.0157
806.292	-0.0172
806.597	-0.0222
806.902	-0.0164
807.206	-0.0258
807.511	-0.0222
807.815	-0.0216
808.12	-0.0163
808.424	-0.011
808.728	-0.022
809.033	-0.0107
809.337	-0.0176
809.641	-0.0138
809.945	-0.0196
810.249	-0.0202
810.553	-0.0191
810.857	-0.0275
811.161	-0.0249
811.465	-0.0256
811.768	-0.0161
812.072	-0.0166
812.376	-0.0135
812.679	-0.0114
812.983	-0.0045
813.286	-0.0046
813.59	0
813.893	0.0035
814.196	0.0081
814.499	0.0034
814.803	-0.0078
815.106	-0.0098
815.409	-0.0112
815.712	-0.0086
816.015	-0.0183
816.318	-0.0121
816.62	-0.0119
816.923	-0.0056
817.226	-0.0126
817.528	-0.0145
817.831	-0.0154
818.133	-0.0148
818.436	-0.0157
818.738	-0.0149
819.041	-0.0205
819.343	-0.0134
819.645	-0.0142
819.947	0.0013
820.249	-0.005
820.551	-0.0041
820.853	-0.0163
821.155	-0.0128
821.457	-0.0217
821.759	-0.0246
822.061	-0.021
822.362	-0.0094
822.664	-0.0053
822.966	-0.0094
823.267	-0.0186
823.569	-0.018
823.87	-0.021
824.171	-0.0177
824.473	-0.0209
824.774	-0.0139
825.075	-0.0115
825.376	0.0011
825.677	-0.007
825.978	-0.0081
826.279	-0.0148
826.58	-0.0178
826.881	-0.0189
827.181	-0.0185
827.482	-0.0188
827.783	-0.0242
828.083	-0.0301
828.384	-0.016
828.684	-0.0079
828.985	-0.0078
829.285	-0.0148
829.585	-0.02
829.885	-0.0098
830.185	-0.009
830.486	-0.0107
830.786	-0.0181
831.086	-0.0172
831.385	-0.0159
831.685	-0.0128
831.985	-0.0077
832.285	-0.0011
832.585	0.0035
832.884	-0.0006
833.184	-0.0024
833.483	-0.0023
833.783	-0.0095
834.082	-0.0054
834.381	-0.0134
834.681	-0.0095
834.98	-0.0089
835.279	-0.0145
835.578	-0.0118
835.877	-0.0242
836.176	-0.0186
836.475	-0.016
836.774	-0.0184
837.072	-0.0234
837.371	-0.0212
837.67	-0.0061
837.968	-0.0129
838.267	-0.0217
838.565	-0.0297
838.864	-0.0152
839.162	-0.0144
839.46	-0.014
839.759	-0.0246
840.057	-0.0183
840.355	-0.0202
840.653	-0.0057
840.951	-0.0182
841.249	-0.0153
841.547	-0.0273
841.845	-0.0284
842.142	-0.0224
842.44	-0.0185
842.738	-0.0134
843.035	-0.0319
843.333	-0.0428
843.63	-0.0377
843.928	-0.0107
844.225	0.0058
844.522	0.0057
844.82	-0.0126
845.117	-0.0221
845.414	-0.0262
845.711	-0.0243
846.008	-0.0227
846.305	-0.0224
846.602	-0.0284
846.898	-0.0195
847.195	-0.0332
847.492	-0.0206
847.788	-0.0345
848.085	-0.0254
848.382	-0.0303
848.678	-0.0317
848.974	-0.0215
849.271	-0.0296
849.567	-0.0202
849.863	-0.0236
850.159	-0.0213
850.455	-0.0131
850.751	-0.0102
851.047	-0.0029
851.343	-0.0135
851.639	-0.032
851.935	-0.0298
852.23	-0.0392
852.526	-0.03
852.822	-0.031
853.117	-0.0203
853.413	-0.0163
853.708	-0.0319
854.003	-0.0445
854.299	-0.0468
854.594	-0.0405
854.889	-0.018
855.184	-0.0345
855.479	-0.0353
855.774	-0.047
856.069	-0.0263
856.364	-0.0189
856.659	-0.0283
856.954	-0.0426
857.248	-0.0536
857.543	-0.0387
857.837	-0.0364
858.132	-0.0201
858.426	-0.0307
858.721	-0.0231
859.015	-0.0276
859.309	-0.0242
859.604	-0.0187
859.898	-0.0064
860.192	-0.0176
860.486	-0.0022
860.78	-0.003
861.074	0.0139
861.367	0.0051
861.661	-0.0037
861.955	0.0063
862.248	0.0213
862.542	0.0207
862.836	0.01
863.129	-0.0359
863.422	-0.0775
863.716	-0.0599
864.009	-0.0591
864.302	-0.0199
864.595	-0.0282
864.889	-0.0008
865.182	0.0091
865.475	0.0004
865.767	-0.0064
866.06	-0.0123
866.353	-0.0069
866.646	0.0071
866.938	-0.0028
867.231	-0.0129
867.524	-0.0073
867.816	-0.0095
868.109	-0.0283
868.401	-0.0488
868.693	-0.0545
868.985	-0.0078
869.278	-0.0081
869.57	-0.0073
869.862	-0.0235
870.154	-0.0234
870.446	-0.0064
870.738	-0.0206
871.029	-0.0074
871.321	-0.0306
871.613	-0.0067
871.904	-0.0103
872.196	-0.0115
872.487	-0.0209
872.779	-0.029
873.07	-0.0234
873.362	-0.0411
873.653	-0.0544
873.944	-0.0526
874.235	-0.0172
874.526	-0.0046
874.817	0.0002
875.108	-0.027
875.399	-0.0387
875.69	-0.0531
875.981	-0.05
876.271	-0.0534
876.562	-0.042
876.853	-0.0269
877.143	-0.0204
877.434	-0.0313
877.724	-0.038
878.014	-0.0153
878.305	0.0197
878.595	0.0187
878.885	0.0327
879.175	0.0226
879.465	0.0289
879.755	0.0225
880.045	-0.0075
880.335	-0.0384
880.624	-0.0888
880.914	-0.0888
