Data from DIblank_072817_1a_Absorbance_16-35-08-021.txt Node
Date: Fri Jul 28 16:35:08 MDT 2017
User: Tank Lab
Spectrometer: FLMS01220
Trigger mode: 0
Integration Time (sec): 1.000000E-1
Scans to average: 10
Electric dark correction enabled: true
Nonlinearity correction enabled: false
Boxcar width: 1
XAxis mode: Wavelengths
Number of Pixels in Spectrum: 2048
>>>>>Begin Spectral Data<<<<<
179.47	0.5478
179.856	0.5478
180.241	0.9556
180.626	-0.7084
181.011	-0
181.396	0.2703
181.781	-0
182.166	-0.7813
182.551	0.0702
182.936	0.8549
183.321	0.9124
183.706	0.0455
184.091	-0.078
184.476	-0
184.86	-0.8797
185.245	-0.8725
185.63	-0.1086
186.015	0.095
186.399	0.3536
186.784	-0
187.169	-0
187.553	-0
187.938	-0
188.322	-0.1014
188.707	-0.0681
189.091	-0.038
189.475	-0.0231
189.86	-0.0122
190.244	-0.0092
190.629	-0.0343
191.013	-0.0224
191.397	-0.0148
191.781	0.0153
192.165	0.0017
192.55	0.0068
192.934	-0.0051
193.318	-0.0053
193.702	-0.0057
194.086	-0.0078
194.47	-0.0007
194.854	-0.0017
195.238	-0.004
195.622	-0.0068
196.006	-0.0063
196.389	-0.0039
196.773	-0.0058
197.157	-0.0074
197.541	-0.0048
197.924	-0.0067
198.308	-0.0038
198.692	-0.0039
199.075	-0.0012
199.459	-0.0033
199.843	-0.003
200.226	-0.001
200.61	0.0028
200.993	-0.0001
201.376	-0.0014
201.76	-0.0024
202.143	0.0045
202.527	0.0069
202.91	0.0056
203.293	-0.0015
203.676	-0.004
204.059	-0.0032
204.443	-0.0001
204.826	0.0024
205.209	0.0041
205.592	0.0032
205.975	0.0014
206.358	-0.0005
206.741	-0.0005
207.124	0.004
207.507	0.0028
207.89	0.006
208.273	0.0011
208.655	0.0015
209.038	-0.0017
209.421	-0.0021
209.804	0.0001
210.186	0
210.569	-0.0003
210.951	0.0001
211.334	0.0014
211.717	0.0033
212.099	0.0006
212.482	-0.0002
212.864	-0.0017
213.246	0.0002
213.629	0.0011
214.011	0.0045
214.393	0.0034
214.776	0.0033
215.158	0
215.54	0.0011
215.922	0.0028
216.305	0.0041
216.687	0.0035
217.069	0.0019
217.451	0.0022
217.833	0.0026
218.215	0.0015
218.597	0.0022
218.979	0.001
219.361	0.0007
219.742	0.0014
220.124	0.0027
220.506	0.0038
220.888	0.0016
221.27	0.0012
221.651	0.0009
222.033	0.0025
222.415	0.0014
222.796	0.0025
223.178	0.0012
223.559	0.0019
223.941	0.0007
224.322	0.0009
224.704	0.0001
225.085	0.0006
225.466	0.0004
225.848	0.0006
226.229	0.0003
226.61	0.0032
226.992	0.0038
227.373	0.0031
227.754	0.0005
228.135	0.0001
228.516	0.0011
228.897	0.0005
229.278	0.0002
229.659	-0.0009
230.04	-0.0003
230.421	0.0002
230.802	-0.0009
231.183	-0.0005
231.564	0.0004
231.944	0.0015
232.325	0.0003
232.706	-0.0007
233.087	0.0004
233.467	0.0018
233.848	0.0023
234.229	0.001
234.609	0.002
234.99	0.0005
235.37	0.0024
235.751	0.0011
236.131	0.0019
236.511	0.0018
236.892	0.003
237.272	0.0032
237.652	0.0025
238.033	0.0012
238.413	0.0011
238.793	0.0013
239.173	0.0017
239.553	0.0017
239.933	0.0014
240.313	0.0013
240.694	-0.0008
241.074	-0.0021
241.453	-0.0025
241.833	0.0003
242.213	0.0017
242.593	0.0002
242.973	0.0002
243.353	-0.0016
243.732	0.0011
244.112	0.0007
244.492	0.0013
244.872	0.0005
245.251	0.0008
245.631	0.0014
246.01	0.0004
246.39	-0.0006
246.769	0.0001
247.149	0.0002
247.528	0.0024
247.908	0.0018
248.287	0.0027
248.666	0.0014
249.045	0.0006
249.425	0.0017
249.804	0.0001
250.183	0.0013
250.562	0.0002
250.941	0.0008
251.32	0.0002
251.699	-0.0001
252.078	0.0008
252.457	0.0002
252.836	0.0006
253.215	0.0008
253.594	0.0016
253.973	0.0021
254.352	0.0004
254.731	0.0002
255.109	-0.0016
255.488	0
255.867	0.0003
256.245	0.0011
256.624	0.0013
257.002	0.0004
257.381	0.0006
257.759	-0.0005
258.138	-0.0005
258.516	-0.0002
258.895	-0.0006
259.273	-0.0011
259.651	-0.0021
260.03	-0.0023
260.408	-0.0014
260.786	-0.0011
261.164	-0.0002
261.542	-0.0011
261.921	-0.0013
262.299	-0.0007
262.677	-0.0003
263.055	-0.0011
263.433	-0.0011
263.811	-0.0004
264.188	0.0015
264.566	0.0019
264.944	0.0021
265.322	0.0027
265.7	0.0019
266.077	0.0005
266.455	-0.0011
266.833	-0.0009
267.21	0.0009
267.588	0.0014
267.966	0.0021
268.343	0.0013
268.721	0.0018
269.098	0.0003
269.475	0.0005
269.853	0.0005
270.23	0.0012
270.607	0.0002
270.985	-0
271.362	-0.0011
271.739	-0.0003
272.116	-0.0001
272.494	0.0011
272.871	0.0024
273.248	0.0027
273.625	0.0026
274.002	0.0007
274.379	-0.0013
274.756	-0.0016
275.132	-0.0013
275.509	-0.0005
275.886	-0.0012
276.263	0.0002
276.64	0.0007
277.016	0.002
277.393	0.0019
277.77	0.0011
278.146	0.0012
278.523	0.0008
278.899	0.0007
279.276	-0.0012
279.652	-0.0017
280.029	-0.0008
280.405	-0.0003
280.782	-0.0003
281.158	0.0001
281.534	-0.0008
281.91	-0.0014
282.287	-0.0014
282.663	0.0005
283.039	0.001
283.415	-0.0004
283.791	-0.0008
284.167	-0.0009
284.543	0.0007
284.919	0.0003
285.295	0.0022
285.671	0.0022
286.047	0.0017
286.423	-0.0005
286.799	-0.0008
287.174	0.0002
287.55	0.0005
287.926	0.0005
288.301	0.0006
288.677	0.0015
289.053	0.0015
289.428	0.0006
289.804	-0.0003
290.179	-0.0003
290.555	0.0008
290.93	0.0008
291.305	-0.0002
291.681	0.0004
292.056	0.0017
292.431	0.0019
292.806	0.002
293.182	0.0006
293.557	0.0013
293.932	0.0003
294.307	0.0007
294.682	0.0013
295.057	0.0011
295.432	0.002
295.807	0.0009
296.182	0.0014
296.557	0.0012
296.932	0.0012
297.306	0.0009
297.681	0.0004
298.056	0.0013
298.43	0.0007
298.805	-0.0013
299.18	-0.0019
299.554	-0.0026
299.929	-0
300.303	-0.0004
300.678	0
301.052	0.0011
301.427	0.0012
301.801	0.0028
302.175	0.001
302.55	0.0015
302.924	0.0002
303.298	0
303.672	-0.0004
304.046	-0.0006
304.421	0.0003
304.795	0.0002
305.169	0.0012
305.543	0.0004
305.917	0.0001
306.291	-0.0016
306.664	-0.0003
307.038	0.0005
307.412	0.0014
307.786	-0.0002
308.16	-0.0007
308.533	-0.0007
308.907	-0.001
309.281	-0.0006
309.654	-0.001
310.028	0.0004
310.401	0.0008
310.775	-0.0004
311.148	-0.0008
311.522	-0.0011
311.895	0.0003
312.268	0.0008
312.642	0.0001
313.015	0.0008
313.388	-0.0001
313.761	0
314.135	-0.0003
314.508	0.0004
314.881	0.0007
315.254	0.0005
315.627	0.0008
316	0.0004
316.373	-0.0008
316.746	-0.0012
317.118	-0.0006
317.491	0.0005
317.864	0.001
318.237	0.0007
318.61	0.0003
318.982	-0.0013
319.355	-0.0011
319.727	0.0004
320.1	0.0007
320.473	-0.0001
320.845	0
321.218	-0.0001
321.59	0.0007
321.962	-0
322.335	0.0007
322.707	0.0009
323.079	0.0005
323.452	0.0013
323.824	0.0016
324.196	0.0018
324.568	0.0003
324.94	-0
325.312	-0.0006
325.684	0.0001
326.056	-0.0014
326.428	-0.0009
326.8	-0.0021
327.172	-0.0004
327.544	-0.0032
327.915	-0.0054
328.287	-0.0043
328.659	-0.0002
329.031	0.003
329.402	0.001
329.774	-0.0008
330.145	-0.0031
330.517	-0.0032
330.888	-0.0036
331.26	-0.002
331.631	-0.0003
332.003	0.0005
332.374	0.0007
332.745	0.001
333.117	0.0012
333.488	0.0005
333.859	0.0009
334.23	0.0003
334.601	0.0014
334.972	0.0015
335.343	0.0035
335.714	0.0019
336.085	0.0002
336.456	-0.0012
336.827	0
337.198	0.0019
337.569	0.001
337.94	-0.0007
338.31	-0.0015
338.681	-0.0012
339.052	-0.0003
339.422	-0.0006
339.793	-0.001
340.164	-0.0005
340.534	-0.0004
340.905	-0.0012
341.275	-0.002
341.645	-0.0035
342.016	-0.0013
342.386	0.0007
342.756	0.0033
343.127	0.0025
343.497	0.0001
343.867	-0.0011
344.237	0.0004
344.607	0.0013
344.977	0.0012
345.347	0.0005
345.717	0.0001
346.087	0.0005
346.457	-0.0001
346.827	0.002
347.197	0.0021
347.567	0.0018
347.936	0.0014
348.306	0.0023
348.676	0.0039
349.046	0.003
349.415	0.0023
349.785	0.0012
350.154	-0.0002
350.524	-0.0006
350.893	-0.0007
351.263	0
351.632	-0.0003
352.001	-0.0013
352.371	-0.0001
352.74	-0.0009
353.109	0.0023
353.478	0.002
353.847	0.0043
354.217	0.0026
354.586	0.0012
354.955	0.0013
355.324	0.0008
355.693	0.0031
356.062	0.0035
356.43	0.0036
356.799	0.0007
357.168	-0.0024
357.537	-0.0028
357.906	-0.0005
358.274	0.0005
358.643	0.0005
359.011	-0.0006
359.38	-0.0011
359.749	-0.0007
360.117	-0.0001
360.486	0.0016
360.854	0.0003
361.222	-0.0021
361.591	-0.003
361.959	-0.0029
362.327	0.0002
362.695	0.0003
363.064	0.0021
363.432	0.0008
363.8	0.0022
364.168	0.0001
364.536	0.0015
364.904	-0.0005
365.272	0.001
365.64	-0.0012
366.008	-0.0012
366.376	-0.0021
366.743	-0.0023
367.111	-0.002
367.479	-0.003
367.847	-0.0009
368.214	-0.0014
368.582	0.001
368.949	0.0021
369.317	0.0019
369.684	-0.0002
370.052	-0.003
370.419	-0.0019
370.787	0.0007
371.154	0.0013
371.521	0.0018
371.889	0.0012
372.256	0.0011
372.623	-0.0002
372.99	-0.0011
373.357	-0.0005
373.724	0.0014
374.091	0.0024
374.458	0.0012
374.825	-0.0007
375.192	-0.0024
375.559	-0.0007
375.926	-0.0006
376.293	0.001
376.659	0.0002
377.026	-0.0006
377.393	-0.0018
377.759	-0.002
378.126	-0.0003
378.492	0.0012
378.859	0.0009
379.225	-0.0004
379.592	-0.001
379.958	0.0013
380.325	0.0004
380.691	0.0002
381.057	-0.0011
381.423	0.0011
381.79	-0
382.156	-0.0016
382.522	-0.002
382.888	-0.0005
383.254	0.002
383.62	0.0013
383.986	0.0007
384.352	-0.0016
384.718	-0.0023
385.084	-0.0018
385.449	-0.0021
385.815	0.0002
386.181	0.0023
386.547	0.0031
386.912	-0.0005
387.278	-0.0009
387.643	-0.0018
388.009	0.0015
388.374	-0
388.74	0.0022
389.105	0.0004
389.471	-0.0006
389.836	-0.0021
390.201	-0.0003
390.566	-0.0012
390.932	-0
391.297	-0.0025
391.662	-0.0015
392.027	-0.0018
392.392	-0.0018
392.757	-0.003
393.122	-0.0038
393.487	-0.0029
393.852	-0.0017
394.217	-0.0019
394.582	-0
394.946	-0.0016
395.311	-0.0009
395.676	-0.0032
396.04	-0.0001
396.405	0.0005
396.77	0.0013
397.134	-0.0017
397.499	0.0006
397.863	0.0001
398.227	0.0038
398.592	0.0005
398.956	0.0018
399.32	-0.0003
399.685	0.001
400.049	0.0003
400.413	0.0008
400.777	0.0006
401.141	0.0005
401.505	0.0008
401.869	-0.0003
402.233	-0.0008
402.597	-0.0031
402.961	-0.0058
403.325	-0.0031
403.689	-0.0016
404.053	0.0017
404.416	-0.0007
404.78	-0.0018
405.144	-0.001
405.507	-0.0024
405.871	-0.002
406.234	-0.0019
406.598	0.0011
406.961	0.0022
407.325	0.0008
407.688	-0.0009
408.051	-0.0007
408.415	0
408.778	-0
409.141	0.0006
409.504	0.0011
409.867	0.0001
410.23	-0.0011
410.593	-0.0011
410.956	-0.0016
411.319	-0.0019
411.682	-0.0062
412.045	-0.0045
412.408	-0.0058
412.771	-0.0014
413.134	-0.0014
413.496	-0.0013
413.859	-0.0027
414.222	-0.0023
414.584	0.0006
414.947	0.0025
415.309	0.0025
415.672	0.0031
416.034	0.0021
416.396	0.001
416.759	-0.001
417.121	-0.001
417.483	-0.0025
417.846	-0.0033
418.208	-0.0024
418.57	0.0004
418.932	-0.0015
419.294	-0.0023
419.656	-0.0021
420.018	-0.0013
420.38	-0.002
420.742	-0.0035
421.104	-0.0009
421.466	-0.0022
421.827	-0.0027
422.189	-0.0048
422.551	-0.0035
422.912	-0.0021
423.274	0.0004
423.636	0.0033
423.997	0.0053
424.359	0.0044
424.72	0.0032
425.081	0.0011
425.443	0.0023
425.804	0.0006
426.165	0.0017
426.527	-0.0002
426.888	-0.0003
427.249	-0.0004
427.61	0.0002
427.971	-0.0012
428.332	-0.0038
428.693	-0.005
429.054	-0.0032
429.415	-0.0027
429.776	-0.0044
430.137	-0.0058
430.498	-0.0026
430.858	0.0017
431.219	0.0023
431.58	0.0006
431.94	-0.0008
432.301	0.0004
432.661	-0.0028
433.022	-0.0029
433.382	-0.0013
433.743	0.0027
434.103	0.0044
434.463	0.0027
434.824	0.0016
435.184	0.0009
435.544	0.0019
435.904	0.0027
436.264	0.0016
436.624	-0.0001
436.985	-0.0013
437.345	0.0006
437.704	0.0014
438.064	0.0018
438.424	-0.001
438.784	-0.003
439.144	-0.0028
439.504	-0.0007
439.863	0
440.223	-0.0019
440.583	-0.004
440.942	-0.0027
441.302	-0.0013
441.661	-0.0004
442.021	-0.0006
442.38	0.0002
442.739	0.0009
443.099	-0.0008
443.458	0.0009
443.817	0.0002
444.176	0.0028
444.536	0.0017
444.895	0.0009
445.254	-0.002
445.613	-0.0046
445.972	-0.0043
446.331	-0.0031
446.69	-0.0016
447.049	-0.0013
447.407	0.0001
447.766	0.0007
448.125	0.0007
448.484	0.0001
448.842	0.0001
449.201	0.0002
449.559	-0.0016
449.918	-0.0016
450.276	-0.0003
450.635	0.0013
450.993	0.0002
451.352	-0.0006
451.71	-0.0001
452.068	-0.0002
452.426	-0.0028
452.785	-0.0032
453.143	-0.0052
453.501	-0.0013
453.859	-0.0022
454.217	0.0028
454.575	-0.0022
454.933	-0.0023
455.291	-0.0017
455.649	0.0013
456.006	0.0031
456.364	0.0013
456.722	0.0016
457.079	-0.0004
457.437	-0.0007
457.795	0.0018
458.152	0.0034
458.51	0.0031
458.867	-0
459.225	-0.0002
459.582	-0.0009
459.939	-0.0024
460.297	-0.0028
460.654	-0.003
461.011	-0.0009
461.368	0.0014
461.725	0.0004
462.082	0.0029
462.44	0.0009
462.797	0.002
463.153	-0.0004
463.51	0.0013
463.867	0.0029
464.224	0.0059
464.581	0.0051
464.938	0.004
465.294	0.0012
465.651	0.0024
466.008	0.0006
466.364	0.0004
466.721	-0.0028
467.077	-0.0046
467.434	-0.0056
467.79	-0.0023
468.146	-0.001
468.503	-0.0018
468.859	-0.0044
469.215	-0.005
469.571	-0.0044
469.927	-0.0019
470.284	0.0022
470.64	0.0019
470.996	0.0006
471.352	-0.0004
471.707	-0.0014
472.063	-0.0012
472.419	-0.0014
472.775	0
473.131	0.0002
473.486	-0.0022
473.842	-0.003
474.198	-0.0031
474.553	-0.002
474.909	0.0023
475.264	0.0016
475.62	0.0029
475.975	0.0002
476.331	-0
476.686	0.0018
477.041	-0.0011
477.396	-0.0015
477.752	-0.0023
478.107	0.0004
478.462	0.0003
478.817	-0.0005
479.172	-0.0017
479.527	-0.0005
479.882	-0.0018
480.237	-0.0018
480.591	-0.002
480.946	-0.0005
481.301	-0.0011
481.656	-0.0011
482.01	-0.0029
482.365	-0.0015
482.72	-0.0016
483.074	-0.0007
483.429	-0.0017
483.783	-0.0024
484.137	-0.0018
484.492	0.0008
484.846	0.0009
485.2	0.0007
485.555	0.0003
485.909	-0.0007
486.263	-0.0021
486.617	-0.0029
486.971	-0.0021
487.325	0
487.679	-0.0002
488.033	0.001
488.387	0.0017
488.741	0.0032
489.094	0.0015
489.448	-0.0014
489.802	-0.0017
490.156	-0.0006
490.509	0.0021
490.863	0.0017
491.216	0.0011
491.57	-0.0023
491.923	-0.0032
492.277	-0.0027
492.63	-0.0004
492.983	-0.0008
493.337	-0.0008
493.69	-0.0012
494.043	-0.0018
494.396	-0.0013
494.749	-0.0017
495.102	-0.0009
495.455	-0.002
495.808	-0.0011
496.161	-0.0005
496.514	-0.0003
496.867	-0.0032
497.22	-0.0049
497.572	-0.004
497.925	0.0001
498.278	0.0014
498.63	0.0025
498.983	0.0011
499.335	0.0007
499.688	-0.0008
500.04	-0.0017
500.393	-0.0005
500.745	-0.0003
501.097	-0.0009
501.449	-0.0018
501.802	-0.0019
502.154	-0.0013
502.506	-0.001
502.858	-0.0021
503.21	0.0002
503.562	-0.0015
503.914	-0.0005
504.266	-0.0025
504.618	-0.0013
504.969	0.001
505.321	0.0003
505.673	0.001
506.025	-0.0008
506.376	-0.0003
506.728	0.0012
507.079	0.0012
507.431	0.002
507.782	0.0015
508.134	0.0016
508.485	0.0027
508.836	0.0025
509.188	0.0008
509.539	-0.0011
509.89	-0
510.241	-0.0004
510.592	-0.0006
510.943	-0.0019
511.294	0.0006
511.645	-0.0011
511.996	-0.0014
512.347	-0.0026
512.698	-0.0022
513.049	-0.002
513.399	-0.0012
513.75	0.002
514.101	0.0015
514.451	0.003
514.802	-0.0001
515.152	-0.0014
515.503	-0.0022
515.853	0.0009
516.203	0.0017
516.554	0.0013
516.904	-0.001
517.254	-0.0012
517.604	-0.0003
517.955	-0.0014
518.305	-0.0019
518.655	-0.0036
519.005	-0.003
519.355	-0.0014
519.705	-0.004
520.055	-0.0047
520.404	-0.006
520.754	-0.0047
521.104	-0.0017
521.454	-0.0019
521.803	-0.0001
522.153	-0.0001
522.502	-0.0003
522.852	0.0005
523.201	-0.0006
523.551	0.0004
523.9	-0.0029
524.249	-0.0022
524.599	-0.0024
524.948	0.0006
525.297	-0.0004
525.646	-0.0028
525.995	-0.0045
526.344	-0.0014
526.694	-0.0007
527.042	0.0002
527.391	-0.0036
527.74	-0.0034
528.089	-0.0013
528.438	0.0008
528.787	0.0014
529.135	-0.0036
529.484	-0.0052
529.833	-0.0046
530.181	-0.002
530.53	-0.0023
530.878	-0.002
531.227	-0.0029
531.575	-0.0016
531.923	-0.0014
532.271	-0.0011
532.62	0.0004
532.968	-0.0019
533.316	-0.0012
533.664	-0.0005
534.012	0.0031
534.36	0.0047
534.708	0.0026
535.056	0.001
535.404	-0
535.752	0.0016
536.1	0.0002
536.447	-0.0015
536.795	-0.0029
537.143	-0.0009
537.49	-0.0018
537.838	-0.0013
538.185	-0.0011
538.533	0.0022
538.88	-0.0012
539.228	0.0002
539.575	-0.0012
539.922	0.0037
540.269	0.0011
540.617	0.0002
540.964	-0.0052
541.311	-0.0042
541.658	-0.0038
542.005	-0.0007
542.352	0.0002
542.699	0.0006
543.045	-0.0006
543.392	-0.0016
543.739	-0.0026
544.086	-0.0037
544.432	-0.0033
544.779	-0.0022
545.126	0.0005
545.472	0.0009
545.819	0.0007
546.165	-0.0001
546.512	-0.0017
546.858	-0.0015
547.204	-0.0034
547.55	-0.0033
547.897	-0.0031
548.243	0.0008
548.589	0.0021
548.935	0.0003
549.281	-0.0019
549.627	-0.0016
549.973	0.0006
550.319	0.0014
550.665	-0.001
551.01	-0.002
551.356	-0.0026
551.702	0.0007
552.048	0.0029
552.393	0.0012
552.739	-0.0028
553.084	-0.0052
553.43	-0.0032
553.775	-0.0024
554.12	-0.0021
554.466	-0.0029
554.811	-0.0018
555.156	-0.0013
555.502	-0.0013
555.847	0.0003
556.192	0.0004
556.537	-0.0004
556.882	-0.0006
557.227	-0.0031
557.572	-0.0023
557.917	-0.002
558.261	0.0006
558.606	0.0023
558.951	0.0002
559.295	0.0001
559.64	-0.0002
559.985	0.0007
560.329	-0.0024
560.674	-0.0016
561.018	-0.0033
561.363	-0.0021
561.707	-0.0033
562.051	-0.0027
562.395	-0.0005
562.74	-0.001
563.084	-0.0007
563.428	-0.0009
563.772	-0.0019
564.116	-0.003
564.46	-0.003
564.804	-0.0019
565.148	-0.0023
565.492	-0.0036
565.835	-0.004
566.179	-0.001
566.523	-0.0005
566.866	0.0006
567.21	-0.0022
567.554	0.001
567.897	0.0023
568.24	0.0034
568.584	0.0027
568.927	0.0013
569.271	0.0005
569.614	-0.0012
569.957	0.0001
570.3	-0
570.643	-0.0008
570.986	-0.004
571.329	-0.0016
571.672	0.0016
572.015	0.0018
572.358	0.0037
572.701	0.0002
573.044	0.0009
573.387	-0.002
573.729	-0.001
574.072	-0.0011
574.414	-0.0027
574.757	-0.0041
575.099	-0.0043
575.442	-0.003
575.784	0.0001
576.127	0.0014
576.469	0.0003
576.811	-0.0001
577.153	-0.0011
577.496	-0.0019
577.838	0.0003
578.18	-0.0008
578.522	-0.001
578.864	-0.0048
579.206	-0.0019
579.548	-0.0001
579.889	-0.0018
580.231	-0.0036
580.573	-0.0024
580.915	-0.0008
581.256	-0.0009
581.598	0.0002
581.939	-0.0013
582.281	-0.0005
582.622	-0.0005
582.964	0.0025
583.305	0.0027
583.646	0.0013
583.988	0.0005
584.329	-0.0013
584.67	-0.003
585.011	-0.0041
585.352	-0.0034
585.693	-0.0022
586.034	-0.0015
586.375	-0.0022
586.716	-0.0008
587.057	-0.0005
587.398	-0.0035
587.738	-0.002
588.079	-0.0004
588.42	0.0023
588.76	0.0006
589.101	-0.0003
589.441	-0.0005
589.782	0.0002
590.122	-0.0004
590.463	-0.0008
590.803	-0.0014
591.143	0.0001
591.483	-0.0012
591.823	-0.0014
592.164	-0.0031
592.504	-0.0019
592.844	-0.004
593.184	-0.0042
593.523	-0.0029
593.863	0.0009
594.203	-0.0015
594.543	-0.0039
594.883	-0.0042
595.222	-0.0015
595.562	0.0007
595.901	0.0005
596.241	-0.0015
596.58	-0.002
596.92	-0.0008
597.259	0.0028
597.599	0.0033
597.938	-0.0007
598.277	0.0004
598.616	0.0013
598.955	0.0022
599.295	-0.0022
599.634	-0.0015
599.973	-0.0017
600.312	-0.0014
600.65	-0.002
600.989	-0.0004
601.328	0.002
601.667	0.0015
602.005	-0.001
602.344	-0.004
602.683	-0.0064
603.021	-0.0047
603.36	-0.0026
603.698	-0.0006
604.037	-0.0013
604.375	0.0003
604.713	-0.0009
605.052	-0.0025
605.39	-0.0059
605.728	-0.0028
606.066	-0.0014
606.404	-0.0029
606.742	-0.0042
607.08	-0.0025
607.418	-0.0017
607.756	-0.0012
608.094	-0.0036
608.431	-0.0016
608.769	-0.0015
609.107	-0.0018
609.444	-0.0025
609.782	-0.0038
610.12	-0.0003
610.457	-0.0007
610.794	-0.0004
611.132	-0.0013
611.469	-0.0018
611.806	-0.0009
612.144	-0.0005
612.481	0
612.818	0.0021
613.155	-0.0004
613.492	0.003
613.829	0.0009
614.166	0.0006
614.503	-0.0013
614.84	-0.0032
615.176	-0.0041
615.513	-0.0046
615.85	-0.0049
616.187	-0.0026
616.523	-0.0041
616.86	-0.004
617.196	-0.006
617.533	-0.0035
617.869	-0.001
618.205	0.0008
618.542	0.0015
618.878	-0.0009
619.214	-0.0015
619.55	-0.0021
619.886	0.0004
620.222	0.0013
620.558	0.0012
620.894	0.0025
621.23	0.0017
621.566	-0.0022
621.902	-0.0042
622.238	-0.0055
622.573	-0.0005
622.909	-0.0018
623.244	-0.0029
623.58	-0.0045
623.916	-0.0042
624.251	-0.0017
624.586	-0.0036
624.922	-0.0038
625.257	-0.0054
625.592	-0.0013
625.927	0.0035
626.263	0.0064
626.598	0.0016
626.933	0.0023
627.268	0.0022
627.603	0.0027
627.938	-0.0005
628.272	-0.0024
628.607	-0.0028
628.942	-0.002
629.277	-0.0008
629.611	-0.0024
629.946	-0.0048
630.281	-0.0052
630.615	-0.0036
630.949	-0.0033
631.284	-0.0044
631.618	0.0006
631.953	0.0031
632.287	0.0056
632.621	0.0038
632.955	0.0048
633.289	0.0028
633.623	0.0002
633.957	0.0008
634.291	-0.0019
634.625	-0.0017
634.959	-0.0081
635.293	-0.0031
635.627	-0.0035
635.96	-0.0025
636.294	-0.0074
636.627	-0.0038
636.961	-0.0007
637.294	-0.0012
637.628	-0.0046
637.961	-0.0063
638.295	-0.0039
638.628	-0.0061
638.961	-0.0079
639.294	-0.0019
639.628	0.0025
639.961	0.0058
640.294	0.0019
640.627	-0.0013
640.96	-0.0037
641.293	-0.0054
641.625	-0.0087
641.958	-0.0053
642.291	0.0034
642.624	0.0107
642.956	0.0054
643.289	-0.0032
643.621	-0.0079
643.954	-0.0088
644.286	-0.0116
644.619	-0.0091
644.951	-0.0054
645.283	-0.0019
645.616	0.0013
645.948	-0
646.28	0.0017
646.612	0.0014
646.944	0.0026
647.276	0.0049
647.608	0.0009
647.94	0.0043
648.272	0.0017
648.603	0.0019
648.935	0.002
649.267	0.0005
649.598	0.0023
649.93	-0.0013
650.261	0.0015
650.593	0.0051
650.924	0.0063
651.256	0.0053
651.587	0.0004
651.918	-0.0004
652.25	-0.0032
652.581	-0.0009
652.912	-0.0024
653.243	0.0027
653.574	-0.0043
653.905	-0.0032
654.236	-0.0062
654.567	0.0004
654.897	0.0014
655.228	0.0025
655.559	0.0024
655.89	0.0029
656.22	0.0019
656.551	0.0017
656.881	-0.0012
657.212	-0.0035
657.542	-0.0042
657.872	-0.0049
658.203	-0.0038
658.533	-0.0051
658.863	-0.0028
659.193	-0.0039
659.523	-0.0036
659.853	-0.0052
660.183	-0.0063
660.513	-0.0052
660.843	-0.0009
661.173	0.0032
661.503	0.0006
661.833	-0.0013
662.162	-0.003
662.492	-0.0022
662.822	-0.0068
663.151	-0.0072
663.481	-0.0088
663.81	-0.0117
664.139	-0.0065
664.469	-0.005
664.798	0.001
665.127	-0.002
665.456	-0.0022
665.785	0.0002
666.114	-0.0037
666.443	-0.0037
666.772	-0.0035
667.101	-0.0036
667.43	-0.0025
667.759	-0.0025
668.088	0.0023
668.416	-0.0011
668.745	-0.0024
669.074	-0.0062
669.402	-0.0108
669.731	-0.009
670.059	-0.0077
670.388	0.001
670.716	-0.0042
671.044	-0.0019
671.372	-0.0031
671.701	-0.0033
672.029	-0.003
672.357	-0.0046
672.685	-0.0047
673.013	-0.0055
673.341	-0.0027
673.669	-0.0013
673.996	-0.0021
674.324	-0.0067
674.652	-0.0036
674.98	-0.0014
675.307	0.0028
675.635	-0.0007
675.962	-0.0028
676.29	-0.005
676.617	-0.0012
676.945	0.0003
677.272	0.0019
677.599	0.0021
677.926	0.0002
678.253	0.0011
678.581	-0.0001
678.908	-0.0017
679.235	-0.003
679.561	-0.0011
679.888	0.0028
680.215	0.0055
680.542	0.0035
680.869	0.0002
681.195	-0.0006
681.522	-0.0024
681.849	0.0013
682.175	-0.0007
682.502	0.0007
682.828	-0.0017
683.154	-0.0053
683.481	-0.0037
683.807	-0.0061
684.133	-0.0023
684.459	-0.0024
684.785	-0.0015
685.111	-0.0062
685.437	-0.0082
685.763	-0.0094
686.089	-0.0074
686.415	-0.0103
686.741	-0.0071
687.067	0.0005
687.392	0.0032
687.718	0.0034
688.043	-0.0004
688.369	-0.0009
688.694	0.0007
689.02	0.0003
689.345	0.0047
689.67	0.001
689.996	0.0048
690.321	0.0023
690.646	0.0028
690.971	0.0009
691.296	0.0009
691.621	0.0005
691.946	-0.0002
692.271	-0.0045
692.596	-0.0023
692.921	-0.001
693.245	0.0076
693.57	0.0077
693.895	0.0046
694.219	0.0003
694.544	0.0031
694.868	0.0057
695.193	0.0031
695.517	-0.0007
695.841	-0.0051
696.166	-0.0034
696.49	-0.0035
696.814	0
697.138	-0
697.462	-0.0031
697.786	-0.0051
698.11	-0.0034
698.434	-0
698.758	0.0012
699.081	-0.0019
699.405	-0.0048
699.729	-0.0059
700.052	-0.0061
700.376	-0.0026
700.7	-0.0029
701.023	-0.0017
701.346	-0.0055
701.67	-0.0054
701.993	-0.0086
702.316	-0.0044
702.639	-0.0065
702.963	-0.0067
703.286	-0.0064
703.609	-0.0016
703.932	0.0012
704.255	0.0056
704.578	0.0057
704.9	0.0076
705.223	0.0023
705.546	0.0009
705.868	0.001
706.191	-0.004
706.514	-0.0053
706.836	-0.0065
707.159	-0.0012
707.481	-0.0011
707.803	-0.0011
708.126	-0.0036
708.448	-0.0084
708.77	-0.0081
709.092	-0.0042
709.414	0.0041
709.736	0.0047
710.058	0.0024
710.38	-0.0025
710.702	-0.004
711.024	-0.0036
711.345	-0.0028
711.667	-0.0046
711.989	-0.0016
712.31	0.0022
712.632	0.0039
712.953	-0.0005
713.275	-0.001
713.596	0.0031
713.917	0.0027
714.239	-0.0018
714.56	-0.0071
714.881	-0.0045
715.202	-0.0059
715.523	-0.003
715.844	-0.0022
716.165	-0.0001
716.486	-0.0032
716.807	-0.0008
717.128	-0.0015
717.448	-0.0023
717.769	-0.0057
718.09	-0.0016
718.41	0.0008
718.731	0.0026
719.051	0.002
719.372	0.0076
719.692	0.0024
720.012	0.0039
720.332	-0.0021
720.653	0.0037
720.973	0.0006
721.293	-0.0027
721.613	-0.006
721.933	-0.0026
722.253	0.005
722.573	0.0047
722.892	0.0018
723.212	-0.0037
723.532	-0.0051
723.851	-0.0054
724.171	-0.0044
724.491	-0.0058
724.81	-0.0066
725.129	-0.0021
725.449	-0
725.768	-0.0032
726.087	-0.0087
726.407	-0.0045
726.726	-0.0003
727.045	0.0028
727.364	-0.0005
727.683	0.0039
728.002	0.0032
728.321	0.0058
728.64	0.0041
728.958	0.0058
729.277	0.005
729.596	0.0028
729.914	0.0002
730.233	0.0018
730.551	-0.0016
730.87	-0
731.188	-0.0007
731.507	0.0025
731.825	0.0006
732.143	-0.0046
732.461	-0.0042
732.779	-0.0019
733.097	-0.0025
733.415	-0.0019
733.733	-0.0034
734.051	-0.0011
734.369	-0.0018
734.687	-0.002
735.005	-0.0004
735.322	-0.001
735.64	-0.0034
735.957	-0.0015
736.275	-0.0007
736.592	0.0025
736.91	-0.0003
737.227	-0.0031
737.544	-0.0039
737.862	-0.0027
738.179	0.0011
738.496	0.0044
738.813	0.001
739.13	-0.0041
739.447	-0.0057
739.764	-0.0041
740.081	-0.0025
740.398	-0.0051
740.714	-0.005
741.031	-0.0015
741.348	0.0019
741.664	0.0019
741.981	-0.0006
742.297	0.0023
742.614	0.0007
742.93	0.003
743.246	-0.0032
743.563	-0.0024
743.879	-0.0076
744.195	-0.0083
744.511	-0.0099
744.827	-0.0051
745.143	-0.0032
745.459	-0.0038
745.775	-0.0055
746.091	-0.0055
746.406	-0.0021
746.722	-0.001
747.038	-0.0012
747.353	-0.0014
747.669	0.0002
747.984	-0.007
748.3	-0.0093
748.615	-0.0155
748.93	-0.003
749.246	0.001
749.561	0.0024
749.876	-0.0034
750.191	-0.0066
750.506	-0.0064
750.821	-0.0012
751.136	-0.0009
751.451	0.0046
751.766	0.0008
752.08	-0.0005
752.395	-0.0061
752.71	-0.0052
753.024	-0.0023
753.339	0.0016
753.653	0.0007
753.968	-0.0011
754.282	-0.0024
754.596	0.0036
754.911	0.0045
755.225	0.0094
755.539	0.0019
755.853	0.0012
756.167	-0.0044
756.481	-0.0043
756.795	-0.006
757.109	-0.0038
757.423	-0.0042
757.736	0.001
758.05	-0
758.364	0.0042
758.677	-0.0025
758.991	-0.0019
759.304	-0.0042
759.618	0.0001
759.931	-0.0024
760.244	-0.0029
760.558	-0.0058
760.871	-0.007
761.184	-0.0043
761.497	0.0019
761.81	0.0054
762.123	-0.0041
762.436	-0.0088
762.749	-0.0084
763.062	-0.0009
763.374	-0.0041
763.687	-0.005
764	-0.0069
764.312	-0.0029
764.625	-0.0007
764.937	0.003
765.25	-0.0003
765.562	0.0009
765.874	0.0002
766.186	0.0023
766.499	-0.0013
766.811	-0.0047
767.123	-0.0068
767.435	-0.0062
767.747	-0.0037
768.059	-0.0014
768.37	0.0018
768.682	0.0017
768.994	-0.0034
769.306	-0.0064
769.617	-0.0063
769.929	0.0047
770.24	0.0047
770.552	0.0017
770.863	-0.0082
771.174	-0.0082
771.486	-0.007
771.797	-0.0016
772.108	-0.0043
772.419	-0.0046
772.73	-0.0099
773.041	-0.0074
773.352	-0.007
773.663	-0.0067
773.974	-0.0037
774.285	-0.0033
774.595	-0.0025
774.906	-0.0048
775.217	-0.0029
775.527	0.0002
775.838	0.0011
776.148	0.0003
776.458	-0.0009
776.769	-0.0009
777.079	-0.0003
777.389	0.0003
777.699	0.0005
778.009	-0.0031
778.319	-0.0065
778.629	-0.0015
778.939	0.0023
779.249	0.006
779.559	0.0013
779.869	-0.0018
780.178	-0.0056
780.488	-0.0078
780.798	-0.0061
781.107	-0.0022
781.417	-0.0033
781.726	-0.0072
782.035	-0.0096
782.345	-0.0009
782.654	0.0014
782.963	0.0041
783.272	-0.0038
783.581	-0.0019
783.89	0.001
784.199	0.0044
784.508	-0.001
784.817	-0.0099
785.126	-0.0162
785.434	-0.0089
785.743	-0.0041
786.052	-0.0002
786.36	-0.0089
786.669	-0.0113
786.977	-0.011
787.285	-0.005
787.594	-0.0003
787.902	-0.0007
788.21	0.0006
788.518	-0.0006
788.826	0.0017
789.135	0.004
789.442	0.0032
789.75	0.0033
790.058	-0.0026
790.366	-0.0011
790.674	-0.0086
790.981	-0.0028
791.289	-0.0006
791.597	0.0009
791.904	-0.0066
792.212	-0.0101
792.519	-0.0074
792.826	0.0034
793.134	0.0054
793.441	0.0033
793.748	0.0017
794.055	0.0045
794.362	0.0035
794.669	-0.0049
794.976	-0.0103
795.283	-0.0092
795.59	-0.0032
795.897	-0.0019
796.203	-0.0045
796.51	-0.0068
796.817	-0.0062
797.123	-0.0017
797.43	0.0003
797.736	-0.0021
798.042	-0.0063
798.349	-0.004
798.655	0.0013
798.961	0.0011
799.267	-0.0026
799.573	-0.0074
799.879	-0.0106
800.185	-0.0108
800.491	-0.005
800.797	0.0048
801.103	0.0063
801.408	0.0035
801.714	0.0008
802.02	-0.0008
802.325	-0.0017
802.631	-0.007
802.936	-0.0072
803.242	-0.005
803.547	-0.0011
803.852	-0.0006
804.157	-0.0025
804.462	-0.0026
804.768	-0.0046
805.073	-0.0037
805.378	-0.0043
805.682	-0.0027
805.987	-0.0017
806.292	0.0061
806.597	0.0067
806.902	-0.0002
807.206	-0.0061
807.511	-0.0104
807.815	-0.0038
808.12	-0.0094
808.424	-0.0037
808.728	-0.0021
809.033	0.0023
809.337	-0.0039
809.641	-0.0079
809.945	-0.0151
810.249	-0.0073
810.553	-0.0043
810.857	0.005
811.161	0.0013
811.465	-0.0044
811.768	-0.0083
812.072	-0.0158
812.376	-0.0086
812.679	-0.0124
812.983	-0.0046
813.286	-0.0074
813.59	-0.0067
813.893	-0.006
814.196	-0.0072
814.499	-0.0042
814.803	-0.005
815.106	-0.0048
815.409	-0.0042
815.712	-0.0022
816.015	-0.0026
816.318	-0.0093
816.62	-0.0104
816.923	-0.0082
817.226	-0.001
817.528	-0.0042
817.831	-0.0059
818.133	-0.0034
818.436	-0.0024
818.738	0.0021
819.041	-0.0002
819.343	0.0056
819.645	-0.0014
819.947	-0.0052
820.249	-0.0118
820.551	-0.0117
820.853	-0.0109
821.155	-0.0124
821.457	-0.0128
821.759	-0.0199
822.061	-0.0135
822.362	-0.0055
822.664	0.001
822.966	0.0007
823.267	-0.003
823.569	-0.0017
823.87	-0.0061
824.171	-0.0034
824.473	-0.0013
824.774	0.0029
825.075	0.0011
825.376	0.0064
825.677	0.0131
825.978	0.0105
826.279	0.0035
826.58	-0.0008
826.881	-0.0018
827.181	0.0018
827.482	0.0023
827.783	0.0047
828.083	-0.0032
828.384	-0.0137
828.684	-0.0165
828.985	-0.0114
829.285	-0.0082
829.585	-0.0088
829.885	-0.0141
830.185	-0.0106
830.486	-0.0044
830.786	0.0044
831.086	0.0121
831.385	0.0076
831.685	0.0064
831.985	-0.0087
832.285	-0.0079
832.585	-0.0063
832.884	0.0004
833.184	-0.002
833.483	-0.0115
833.783	-0.0098
834.082	-0.0052
834.381	0.0018
834.681	0.0009
834.98	-0.0046
835.279	-0.0029
835.578	0.0005
835.877	0.0054
836.176	0.0048
836.475	0.0076
836.774	0.0066
837.072	0.0043
837.371	0.0021
837.67	0.0049
837.968	0.0013
838.267	-0.0082
838.565	-0.0142
838.864	-0.0081
839.162	-0.008
839.46	-0.0055
839.759	-0.0121
840.057	-0.0189
840.355	-0.0119
840.653	-0.0017
840.951	0.0104
841.249	0.0085
841.547	0.0087
841.845	0.0141
842.142	0.0168
842.44	-0.0037
842.738	-0.0134
843.035	-0.0213
843.333	-0.019
843.63	-0.0139
843.928	-0.0027
844.225	0.0106
844.522	0.0122
844.82	-0.005
845.117	-0.0073
845.414	-0.0117
845.711	0.0009
846.008	0.0005
846.305	-0.0093
846.602	-0.0165
846.898	-0.009
847.195	-0.0002
847.492	0.0032
847.788	-0.0115
848.085	-0.0061
848.382	0.0046
848.678	0.001
848.974	-0.0018
849.271	-0.0093
849.567	-0.0011
849.863	0.0029
850.159	-0.0108
850.455	-0.0098
850.751	-0.0139
851.047	0.0009
851.343	-0.0075
851.639	-0.0123
851.935	-0.025
852.23	-0.0185
852.526	-0.0064
852.822	0.0102
853.117	0.0075
853.413	-0.0037
853.708	-0.0197
854.003	-0.0094
854.299	-0.0025
854.594	-0.0078
854.889	-0.03
855.184	-0.0249
855.479	-0.0099
855.774	0.0205
856.069	0.0037
856.364	-0.001
856.659	-0.0109
856.954	0.0129
857.248	0.0087
857.543	0.0084
857.837	-0.0165
858.132	-0.01
858.426	-0.0112
858.721	0.0016
859.015	0.0039
859.309	-0.0014
859.604	-0.0055
859.898	-0.0053
860.192	0.0015
860.486	-0.0098
860.78	-0.0152
861.074	-0.0106
861.367	0.0124
861.661	0.0171
861.955	0.0113
862.248	0.0008
862.542	-0.0129
862.836	-0.0281
863.129	-0.0436
863.422	-0.0314
863.716	-0.0214
864.009	0.0051
864.302	-0.0013
864.595	-0.0059
864.889	-0.0273
865.182	-0.0313
865.475	-0.0283
865.767	-0.0293
866.06	-0.019
866.353	-0.0145
866.646	0.0034
866.938	-0.002
867.231	0.003
867.524	-0.0003
867.816	0.0154
868.109	0.0168
868.401	0.003
868.693	-0.0143
868.985	-0.0207
869.278	-0.0306
869.57	-0.0394
869.862	-0.0587
870.154	-0.0559
870.446	-0.0408
870.738	-0.0153
871.029	-0.0149
871.321	-0.0129
871.613	-0.0105
871.904	-0.0035
872.196	-0.0008
872.487	-0.004
872.779	-0.0121
873.07	-0.0123
873.362	-0.0025
873.653	0.0183
873.944	-0.0006
874.235	-0.0259
874.526	-0.0265
874.817	-0.0275
875.108	0.0078
875.399	0.0069
875.69	0.0224
875.981	-0.0151
876.271	-0.025
876.562	-0.0067
876.853	-0.0075
877.143	-0.0208
877.434	-0.0451
877.724	-0.0587
878.014	-0.0226
878.305	-0.0365
878.595	-0.0078
878.885	-0.0276
879.175	-0.0084
879.465	-0.0213
879.755	-0.0133
880.045	-0.0215
880.335	-0.0293
880.624	-0.0428
880.914	-0.0428
