Data from DIblank_072817_1b_Absorbance_16-38-16-462.txt Node
Date: Fri Jul 28 16:38:16 MDT 2017
User: Tank Lab
Spectrometer: FLMS01220
Trigger mode: 0
Integration Time (sec): 1.000000E-1
Scans to average: 10
Electric dark correction enabled: true
Nonlinearity correction enabled: false
Boxcar width: 1
XAxis mode: Wavelengths
Number of Pixels in Spectrum: 2048
>>>>>Begin Spectral Data<<<<<
179.47	0.1979
179.856	0.1979
180.241	0.1219
180.626	-0.9941
181.011	-0.0677
181.396	-0.1583
181.781	-0.4522
182.166	-0
182.551	-0
182.936	0.6574
183.321	-0
183.706	0.5754
184.091	-0.2081
184.476	0.1217
184.86	-0
185.245	-0
185.63	-0
186.015	-0
186.399	-0
186.784	-0
187.169	0.3975
187.553	-0
187.938	-0
188.322	-0.1606
188.707	-0.0852
189.091	-0.0477
189.475	-0.0005
189.86	0.0024
190.244	-0.0011
190.629	-0.0121
191.013	-0.0121
191.397	0.0104
191.781	0.0182
192.165	0.0073
192.55	0.009
192.934	0.0074
193.318	0.0153
193.702	0.0109
194.086	0.0092
194.47	0.0048
194.854	0.0048
195.238	-0.0023
195.622	-0.0005
196.006	0.001
196.389	0.0041
196.773	0.0029
197.157	0.0011
197.541	0.004
197.924	0.0065
198.308	0.0076
198.692	0.0042
199.075	0.0016
199.459	-0.0028
199.843	-0.0029
200.226	-0.0029
200.61	-0.0005
200.993	-0.0023
201.376	0.0013
201.76	0.0024
202.143	0.0065
202.527	0.0036
202.91	-0.0005
203.293	-0.0031
203.676	-0.0043
204.059	0.0004
204.443	0.0023
204.826	0.0073
205.209	0.004
205.592	0.0043
205.975	-0
206.358	0.0006
206.741	0.0003
207.124	0.005
207.507	0.0065
207.89	0.0076
208.273	0.0064
208.655	0.0065
209.038	0.0034
209.421	0.0004
209.804	0.0017
210.186	0.0047
210.569	0.0058
210.951	0.0054
211.334	0.0037
211.717	0.0025
212.099	-0.0014
212.482	-0.0016
212.864	-0.0015
213.246	0.0028
213.629	0.0031
214.011	0.0049
214.393	0.0022
214.776	0.0024
215.158	-0.0005
215.54	0.001
215.922	0.002
216.305	0.0051
216.687	0.0041
217.069	0.0022
217.451	0.0019
217.833	0.0034
218.215	0.0031
218.597	0.0029
218.979	0.0012
219.361	0.002
219.742	0.0023
220.124	0.004
220.506	0.0044
220.888	0.0023
221.27	0.0016
221.651	0.002
222.033	0.0038
222.415	0.0043
222.796	0.0048
223.178	0.0048
223.559	0.0045
223.941	0.002
224.322	0.0006
224.704	-0.0001
225.085	0.0016
225.466	0.0026
225.848	0.0023
226.229	0.0024
226.61	0.0033
226.992	0.0042
227.373	0.0035
227.754	0.003
228.135	0.0005
228.516	0.0009
228.897	-0.0002
229.278	0.002
229.659	0.0024
230.04	0.0035
230.421	0.0035
230.802	0.0036
231.183	0.0036
231.564	0.0045
231.944	0.0032
232.325	0.002
232.706	0.0011
233.087	0.001
233.467	0.0019
233.848	0.0009
234.229	0.0008
234.609	0.0018
234.99	0.0019
235.37	0.0034
235.751	0.0031
236.131	0.0033
236.511	0.0043
236.892	0.0044
237.272	0.0032
237.652	0.0018
238.033	0.0014
238.413	0.0038
238.793	0.0037
239.173	0.0025
239.553	0.0029
239.933	0.0033
240.313	0.0051
240.694	0.0024
241.074	0.001
241.453	0.0001
241.833	0.0003
242.213	0.0019
242.593	0.0011
242.973	0.003
243.353	0.0016
243.732	0.0033
244.112	0.0025
244.492	0.0029
244.872	0.0024
245.251	0.0029
245.631	0.0026
246.01	0.0026
246.39	0.0017
246.769	0.0021
247.149	0.0021
247.528	0.0038
247.908	0.0033
248.287	0.003
248.666	0.0019
249.045	0.0025
249.425	0.0027
249.804	0.002
250.183	0.002
250.562	0.0004
250.941	0.0017
251.32	0.0016
251.699	0.0023
252.078	0.0012
252.457	0.001
252.836	0.0008
253.215	0.0018
253.594	0.0026
253.973	0.0031
254.352	0.0023
254.731	0.0022
255.109	0.0023
255.488	0.0025
255.867	0.0022
256.245	0.0016
256.624	0.0013
257.002	0.0002
257.381	0.0001
257.759	-0.0006
258.138	-0.0003
258.516	0.0003
258.895	0.0007
259.273	0.0009
259.651	0.0011
260.03	0.0008
260.408	0.0015
260.786	0.0017
261.164	0.0026
261.542	0.0022
261.921	0.0015
262.299	0.0014
262.677	0.0014
263.055	0.0016
263.433	0.0008
263.811	0.0013
264.188	0.0013
264.566	0.0027
264.944	0.0025
265.322	0.0027
265.7	0.0029
266.077	0.0019
266.455	0.001
266.833	0.0013
267.21	0.0014
267.588	0.0026
267.966	0.0016
268.343	0.0021
268.721	0.0025
269.098	0.0023
269.475	0.0022
269.853	0.0012
270.23	0.0015
270.607	0.0014
270.985	0.0027
271.362	0.002
271.739	0.0016
272.116	0.0015
272.494	0.0026
272.871	0.0032
273.248	0.0026
273.625	0.0018
274.002	0.0022
274.379	0.0021
274.756	0.0016
275.132	-0.0002
275.509	-0.0008
275.886	-0.0003
276.263	0.0011
276.64	0.0019
277.016	0.002
277.393	0.0022
277.77	0.0017
278.146	0.0027
278.523	0.0028
278.899	0.0019
279.276	0.0014
279.652	0.0005
280.029	0.0017
280.405	0.0013
280.782	0.0019
281.158	0.0015
281.534	0.0013
281.91	0.0012
282.287	0.0014
282.663	0.0022
283.039	0.002
283.415	0.0011
283.791	0
284.167	-0.0002
284.543	0.0015
284.919	0.0011
285.295	0.0021
285.671	0.0016
286.047	0.0027
286.423	0.0013
286.799	0.002
287.174	0.0017
287.55	0.0024
287.926	0.0012
288.301	0.0026
288.677	0.0019
289.053	0.0028
289.428	0.0018
289.804	0.0023
290.179	0.0025
290.555	0.0023
290.93	0.001
291.305	-0.0007
291.681	0.0003
292.056	0.0025
292.431	0.0023
292.806	0.001
293.182	-0.0005
293.557	0.0006
293.932	0.001
294.307	0.0014
294.682	0.0015
295.057	0.0027
295.432	0.0031
295.807	0.0031
296.182	0.0018
296.557	0.0031
296.932	0.0029
297.306	0.0037
297.681	0.0015
298.056	0.0013
298.43	0.0001
298.805	-0.0012
299.18	-0.0011
299.554	-0.0009
299.929	0.0019
300.303	0.0026
300.678	0.0019
301.052	0.0024
301.427	0.0008
301.801	0.0023
302.175	0.0007
302.55	0.0027
302.924	0.0016
303.298	0.0019
303.672	0.0028
304.046	0.0025
304.421	0.0029
304.795	0.0019
305.169	0.0038
305.543	0.0027
305.917	0.0032
306.291	0.0018
306.664	0.0026
307.038	0.0006
307.412	0.0009
307.786	0.0003
308.16	0.0014
308.533	0.0013
308.907	0.0006
309.281	0.0023
309.654	0.0016
310.028	0.001
310.401	-0.0011
310.775	-0.001
311.148	0.0006
311.522	0.001
311.895	0.0007
312.268	0.0017
312.642	0.0011
313.015	0.0018
313.388	-0.0004
313.761	-0.0005
314.135	0.0003
314.508	0.0006
314.881	0.0009
315.254	-0.0004
315.627	0.0011
316	0.0026
316.373	0.0022
316.746	0.0017
317.118	0.0008
317.491	0.0029
317.864	0.0049
318.237	0.0049
318.61	0.0017
318.982	-0.001
319.355	-0.0015
319.727	-0.0003
320.1	0.0007
320.473	-0.0002
320.845	0.0024
321.218	0.0022
321.59	0.0027
321.962	0.0009
322.335	0.0004
322.707	0.0003
323.079	-0.0003
323.452	0.0016
323.824	0.0031
324.196	0.0036
324.568	0.0016
324.94	0.0009
325.312	0.0032
325.684	0.0028
326.056	0.003
326.428	-0.0003
326.8	0
327.172	-0.0007
327.544	-0.0006
327.915	-0.0013
328.287	-0.0001
328.659	0.0026
329.031	0.0038
329.402	0.0015
329.774	-0.001
330.145	-0.0016
330.517	-0.0001
330.888	0.0002
331.26	0
331.631	-0.0002
332.003	0.0011
332.374	0.0015
332.745	0.0004
333.117	0.0001
333.488	-0.0001
333.859	0.0016
334.23	0.0015
334.601	0.0019
334.972	0.0026
335.343	0.0018
335.714	0.0014
336.085	0.0007
336.456	0.0006
336.827	0.0007
337.198	0.0006
337.569	0.001
337.94	0.0016
338.31	-0
338.681	-0.0006
339.052	-0.0006
339.422	0.0002
339.793	0.0006
340.164	-0.0014
340.534	-0.0012
340.905	-0.0024
341.275	-0.001
341.645	-0.0019
342.016	0.0014
342.386	0.0013
342.756	0.0037
343.127	0.001
343.497	0.0015
343.867	-0.0001
344.237	0.0006
344.607	-0.0006
344.977	-0.0011
345.347	0.0013
345.717	0.0018
346.087	0.0022
346.457	0.0023
346.827	0.0034
347.197	0.0025
347.567	-0.0001
347.936	0.0009
348.306	0.0028
348.676	0.0041
349.046	0.0028
349.415	0.0032
349.785	0.0036
350.154	0.0032
350.524	0.0028
350.893	0.0018
351.263	0.0019
351.632	0.0005
352.001	-0.0007
352.371	-0.0007
352.74	0
353.109	0.0007
353.478	0.0006
353.847	0.0024
354.217	0.0035
354.586	0.0031
354.955	0.002
355.324	0.0014
355.693	0.0035
356.062	0.0041
356.43	0.0048
356.799	0.0021
357.168	0.001
357.537	0.0014
357.906	0.0026
358.274	0.0026
358.643	0.0015
359.011	0.0017
359.38	0.001
359.749	0.0008
360.117	-0.0012
360.486	0.0006
360.854	0.0014
361.222	0.0013
361.591	-0.0015
361.959	-0.0027
362.327	-0
362.695	0.001
363.064	0.004
363.432	0.0035
363.8	0.0047
364.168	0.0029
364.536	0.0035
364.904	0.001
365.272	-0.0008
365.64	-0.002
366.008	0.0002
366.376	0.0002
366.743	0.0002
367.111	-0.001
367.479	-0.0005
367.847	-0.0005
368.214	0.0015
368.582	0.0032
368.949	0.0057
369.317	0.0033
369.684	0.0002
370.052	-0.0029
370.419	-0.0006
370.787	0.0011
371.154	0.0029
371.521	0.0026
371.889	0.0027
372.256	0.0011
372.623	-0.0007
372.99	-0.0003
373.357	0.0003
373.724	0.0018
374.091	0.0029
374.458	0.0019
374.825	0.0011
375.192	-0.0007
375.559	-0.0001
375.926	0.0006
376.293	0.0007
376.659	0.0022
377.026	0.0015
377.393	0.0026
377.759	0.0012
378.126	0.0007
378.492	-0.0005
378.859	-0.0014
379.225	-0.0006
379.592	0.0004
379.958	0.0023
380.325	0.0011
380.691	0.0005
381.057	-0.0002
381.423	0.001
381.79	0.0015
382.156	-0.0009
382.522	-0.0018
382.888	-0.0013
383.254	0.0006
383.62	0.0028
383.986	0.0038
384.352	0.0036
384.718	0.0023
385.084	0.0014
385.449	0.0012
385.815	0.0019
386.181	0.0018
386.547	0.0044
386.912	0.0036
387.278	0.0032
387.643	0.0011
388.009	0.0022
388.374	0.0006
388.74	0.0027
389.105	0.0008
389.471	0.001
389.836	0.0008
390.201	0.0026
390.566	0.0032
390.932	0.002
391.297	0.0006
391.662	0.0014
392.027	0.0008
392.392	0.001
392.757	0.0001
393.122	0.0009
393.487	0.0011
393.852	0.0013
394.217	0.0008
394.582	0.0013
394.946	0.0019
395.311	0.0008
395.676	-0
396.04	0.0002
396.405	0.0019
396.77	0.0023
397.134	0
397.499	-0.0002
397.863	-0.0004
398.227	0.0019
398.592	-0.0005
398.956	0.001
399.32	0.0004
399.685	0.0017
400.049	0.001
400.413	0.0008
400.777	0.0015
401.141	0.0017
401.505	0.0034
401.869	0.0043
402.233	0.0042
402.597	0.0017
402.961	-0.0007
403.325	0.0006
403.689	0.0012
404.053	0.0032
404.416	0.0008
404.78	0.0023
405.144	0.0028
405.507	0.0034
405.871	0.001
406.234	0.0005
406.598	-0.0003
406.961	0.0015
407.325	0.0013
407.688	0.0016
408.051	0.0011
408.415	0.0014
408.778	0.0005
409.141	0.0014
409.504	0.0017
409.867	0.0008
410.23	0.0005
410.593	-0.0015
410.956	-0.0001
411.319	0.0009
411.682	-0.0013
412.045	-0.0009
412.408	-0.004
412.771	-0.0003
413.134	-0.0016
413.496	-0.0007
413.859	-0.0007
414.222	0.0012
414.584	0.0039
414.947	0.0032
415.309	0.0012
415.672	-0.0001
416.034	0
416.396	-0.0002
416.759	-0.0028
417.121	-0.0036
417.483	-0.0045
417.846	-0.0027
418.208	-0.0025
418.57	-0.0006
418.932	-0.0023
419.294	-0.002
419.656	-0.0029
420.018	-0.0023
420.38	-0.0019
420.742	-0.0012
421.104	0.0002
421.466	-0.0015
421.827	-0.0012
422.189	-0.0015
422.551	0.0003
422.912	0.0013
423.274	0.001
423.636	0.0009
423.997	0.0018
424.359	0.0037
424.72	0.0039
425.081	0.0041
425.443	0.0029
425.804	0.0035
426.165	0.0033
426.527	0.0027
426.888	0.0008
427.249	0.001
427.61	0.0025
427.971	0.0008
428.332	-0.0025
428.693	-0.0037
429.054	-0.0016
429.415	0.0006
429.776	-0.0014
430.137	-0.0002
430.498	0.0011
430.858	0.0032
431.219	0.0014
431.58	0.0025
431.94	0.0027
432.301	0.0035
432.661	-0.0016
433.022	-0.0017
433.382	-0.0021
433.743	0.0018
434.103	0.0034
434.463	0.0031
434.824	0.0017
435.184	0.0014
435.544	0.0035
435.904	0.0053
436.264	0.0043
436.624	0.0042
436.985	0.0015
437.345	0.0028
437.704	0.0014
438.064	0.0007
438.424	-0.0029
438.784	-0.0043
439.144	-0.0017
439.504	0.0008
439.863	0.0008
440.223	-0
440.583	-0.0004
440.942	0.0014
441.302	0.0021
441.661	0.0013
442.021	0.0046
442.38	0.0041
442.739	0.0044
443.099	-0.0018
443.458	-0.0007
443.817	0.0017
444.176	0.0059
444.536	0.0044
444.895	0.0028
445.254	0.0012
445.613	0.0009
445.972	0.0006
446.331	0.0013
446.69	0.0024
447.049	0.0011
447.407	-0.0017
447.766	-0.0016
448.125	0.0009
448.484	0.0023
448.842	0.001
449.201	-0.0002
449.559	-0.0006
449.918	0.0011
450.276	0.0009
450.635	0.0024
450.993	0.0022
451.352	0.002
451.71	0.0025
452.068	-0.0005
452.426	-0.0016
452.785	-0.0021
453.143	-0.0011
453.501	0.0009
453.859	-0.0012
454.217	0.0017
454.575	-0.0005
454.933	-0
455.291	-0.0004
455.649	0.0011
456.006	0.0007
456.364	-0.0016
456.722	-0.0016
457.079	0.001
457.437	0.0003
457.795	0.0007
458.152	0.0002
458.51	0.0027
458.867	0.0016
459.225	0.0021
459.582	0.0008
459.939	0.0007
460.297	-0.0017
460.654	0.0003
461.011	0.002
461.368	0.0053
461.725	0.0037
462.082	0.0025
462.44	0.0008
462.797	0.0014
463.153	0.0037
463.51	0.0042
463.867	0.0036
464.224	0.0028
464.581	0.0019
464.938	0.0051
465.294	0.0046
465.651	0.0051
466.008	-0.001
466.364	-0.0003
466.721	-0.002
467.077	0.0002
467.434	-0.0012
467.79	0.0033
468.146	0.0026
468.503	0.0019
468.859	-0.0008
469.215	-0.0007
469.571	0.0004
469.927	0.0025
470.284	0.0038
470.64	0.0049
470.996	0.0037
471.352	0.0035
471.707	0.0008
472.063	0.0007
472.419	0.0019
472.775	0.003
473.131	0.0034
473.486	0.0001
473.842	-0.0005
474.198	-0.0013
474.553	0.0003
474.909	0.0016
475.264	0.0019
475.62	0.0027
475.975	0.003
476.331	0.0034
476.686	0.0045
477.041	0.0034
477.396	0
477.752	0.0005
478.107	0.0025
478.462	0.0028
478.817	0.0011
479.172	0.0012
479.527	0.001
479.882	-0.0007
480.237	-0.0024
480.591	-0.0013
480.946	0.0016
481.301	0.0018
481.656	0.0038
482.01	0.0018
482.365	0.0019
482.72	0.0017
483.074	0.0037
483.429	0.0032
483.783	0.0033
484.137	0.0014
484.492	0.0014
484.846	0.0007
485.2	0.0025
485.555	0.0028
485.909	0.0009
486.263	-0.0016
486.617	-0.0007
486.971	0.0005
487.325	0.0026
487.679	0.0015
488.033	0.0018
488.387	0.002
488.741	0.002
489.094	0.0014
489.448	0.0006
489.802	0.0008
490.156	0.0006
490.509	0.0008
490.863	0.001
491.216	0.0016
491.57	-0.0008
491.923	-0.0006
492.277	-0
492.63	0.0012
492.983	0.0019
493.337	0.0003
493.69	0.0023
494.043	0.0003
494.396	0.0015
494.749	-0.0001
495.102	0.0004
495.455	-0.0001
495.808	0.0001
496.161	-0.0002
496.514	0
496.867	-0.0007
497.22	0.0013
497.572	0.0017
497.925	0.0032
498.278	0.0013
498.63	0.0012
498.983	0.0002
499.335	0.0015
499.688	0.002
500.04	0.0025
500.393	0.001
500.745	0.0002
501.097	-0.002
501.449	-0.0009
501.802	-0.0016
502.154	-0.0003
502.506	0.0008
502.858	0.001
503.21	0.0027
503.562	-0.0006
503.914	0.0005
504.266	0.0002
504.618	0.0017
504.969	0.0007
505.321	0.0002
505.673	0.0003
506.025	0.0009
506.376	-0.0001
506.728	0.002
507.079	0.0027
507.431	0.002
507.782	0.001
508.134	-0.0002
508.485	0.0025
508.836	0.0014
509.188	-0.0005
509.539	-0.0009
509.89	0.0024
510.241	0.0033
510.592	0.0021
510.943	-0.0032
511.294	-0.0006
511.645	-0.0008
511.996	0.0023
512.347	0.001
512.698	0.0007
513.049	-0.0001
513.399	0.0016
513.75	0.0046
514.101	0.0052
514.451	0.0053
514.802	0.0027
515.152	0.0016
515.503	0.0015
515.853	0.0033
516.203	0.0033
516.554	0.0023
516.904	0.0009
517.254	-0.0004
517.604	-0.0028
517.955	-0.004
518.305	-0.0042
518.655	-0.0024
519.005	-0.0016
519.355	0.0007
519.705	-0.0017
520.055	-0.0033
520.404	-0.0042
520.754	-0.0008
521.104	0.0038
521.454	0.0062
521.803	0.0052
522.153	0.0006
522.502	-0.0027
522.852	-0.002
523.201	-0.0014
523.551	0.001
523.9	-0.0025
524.249	-0.001
524.599	-0.0024
524.948	0.0006
525.297	-0.0006
525.646	-0.0029
525.995	-0.004
526.344	0.0002
526.694	0.0023
527.042	0.0024
527.391	-0.0046
527.74	-0.0025
528.089	-0.0008
528.438	0.0028
528.787	0.0007
529.135	-0.0035
529.484	-0.0034
529.833	-0.0009
530.181	0.0005
530.53	-0.0007
530.878	-0.0029
531.227	-0.0007
531.575	0.0006
531.923	0.0028
532.271	0.0015
532.62	0.0019
532.968	0.001
533.316	0.0014
533.664	0.0047
534.012	0.0044
534.36	0.0072
534.708	0.0042
535.056	0.001
535.404	-0.0002
535.752	0.001
536.1	0.0037
536.447	0.0015
536.795	0.0008
537.143	-0.0021
537.49	-0.0004
537.838	-0.0018
538.185	0.0005
538.533	-0.0017
538.88	-0.0008
539.228	-0.0018
539.575	-0.0011
539.922	0.0002
540.269	0.0025
540.617	0.0049
540.964	0
541.311	-0.0015
541.658	-0.0015
542.005	0.002
542.352	0.0034
542.699	0.0017
543.045	-0.0001
543.392	0.0005
543.739	-0.0004
544.086	-0.0017
544.432	-0.0026
544.779	-0.0026
545.126	-0.0008
545.472	-0.0026
545.819	-0.0002
546.165	-0.0011
546.512	-0.0007
546.858	-0.0022
547.204	-0.0033
547.55	-0.0037
547.897	-0.0035
548.243	-0.0025
548.589	-0.0018
548.935	-0.0013
549.281	0.0009
549.627	0.0013
549.973	0.0023
550.319	0.0034
550.665	0.003
551.01	0.0006
551.356	-0.0002
551.702	0.0019
552.048	0.003
552.393	0.0016
552.739	-0.0027
553.084	-0.0014
553.43	-0.0003
553.775	0.0001
554.12	-0.0003
554.466	-0.0034
554.811	-0.0013
555.156	-0.0028
555.502	0.0006
555.847	0.0004
556.192	0.0013
556.537	0.0009
556.882	-0.0014
557.227	-0.0033
557.572	-0.0035
557.917	0.0012
558.261	0.0043
558.606	0.0034
558.951	-0.0019
559.295	-0.0031
559.64	-0.0032
559.985	0.0022
560.329	0.0018
560.674	0.0041
561.018	0.0028
561.363	0.0026
561.707	0.0008
562.051	0.0005
562.395	0.0011
562.74	0.0002
563.084	0.0004
563.428	0.0007
563.772	0.0013
564.116	0.0012
564.46	-0.001
564.804	-0.0032
565.148	-0.0052
565.492	-0.0046
565.835	-0.0038
566.179	-0.0012
566.523	0.0001
566.866	0.0006
567.21	0.0017
567.554	0.0013
567.897	0.0049
568.24	0.0033
568.584	0.0041
568.927	0.0032
569.271	0.0025
569.614	0.0008
569.957	-0.0009
570.3	-0.0001
570.643	-0.0002
570.986	-0.0012
571.329	0.0002
571.672	0.0027
572.015	0.002
572.358	0.0027
572.701	0.0016
573.044	-0.0001
573.387	-0.0027
573.729	-0.002
574.072	0.0002
574.414	-0.0003
574.757	-0.0006
575.099	-0.0007
575.442	-0.0011
575.784	0.0003
576.127	0.0036
576.469	0.0028
576.811	0.0005
577.153	-0.0026
577.496	-0.0029
577.838	-0.0016
578.18	-0.0021
578.522	-0.0024
578.864	-0.0054
579.206	-0.0028
579.548	-0.0006
579.889	-0.0006
580.231	-0.0007
580.573	-0.0004
580.915	-0.0003
581.256	-0.0028
581.598	-0.0031
581.939	-0.0039
582.281	-0.001
582.622	0.0006
582.964	0.0038
583.305	0.002
583.646	0.0008
583.988	-0.0015
584.329	-0.0001
584.67	-0.0011
585.011	-0.0005
585.352	-0.002
585.693	-0.0022
586.034	-0.0027
586.375	-0.0004
586.716	0.0022
587.057	0.0042
587.398	0.002
587.738	0.0028
588.079	0.0024
588.42	0.0049
588.76	0.002
589.101	0.0014
589.441	-0.0016
589.782	-0.0006
590.122	-0.0012
590.463	0.0004
590.803	-0.0005
591.143	0.0024
591.483	0.0009
591.823	0.0006
592.164	-0.0037
592.504	-0.0029
592.844	-0.0023
593.184	-0.0009
593.523	-0.0014
593.863	0.001
594.203	0.0006
594.543	-0.0002
594.883	-0.0011
595.222	-0.0012
595.562	-0.0006
595.901	-0.0005
596.241	-0.0006
596.58	0.0003
596.92	-0.0001
597.259	0.0012
597.599	0.002
597.938	0.0019
598.277	0.0035
598.616	0.0018
598.955	0.001
599.295	-0.0023
599.634	-0.0032
599.973	-0.0039
600.312	-0.0044
600.65	-0.0029
600.989	0.0012
601.328	0.0059
601.667	0.0055
602.005	0.0026
602.344	-0.0008
602.683	-0.0025
603.021	-0.0027
603.36	-0.0016
603.698	0.0007
604.037	0.0022
604.375	0.0023
604.713	0.0002
605.052	-0.0015
605.39	-0.0019
605.728	-0.0027
606.066	-0.0012
606.404	-0.0038
606.742	-0.0024
607.08	-0.0026
607.418	-0.0016
607.756	-0.0005
608.094	-0.0019
608.431	-0.0001
608.769	0.0001
609.107	0.0019
609.444	-0.0001
609.782	-0.0043
610.12	-0.0039
610.457	-0.0023
610.794	-0.0005
611.132	-0.0011
611.469	-0.0025
611.806	-0.0002
612.144	-0.0006
612.481	0.0023
612.818	0.0043
613.155	0.0036
613.492	0.0029
613.829	0.0008
614.166	0.0007
614.503	0.0018
614.84	0.0019
615.176	0.0002
615.513	-0.0035
615.85	-0.0061
616.187	-0.0017
616.523	-0.0007
616.86	-0.0022
617.196	-0.0063
617.533	-0.0053
617.869	-0.0009
618.205	0.0021
618.542	0.001
618.878	-0.0014
619.214	-0.0027
619.55	-0.0019
619.886	-0.0003
620.222	-0.0013
620.558	-0.0003
620.894	0.0047
621.23	0.0025
621.566	-0.0004
621.902	-0.0038
622.238	-0.0028
622.573	0.0031
622.909	-0.0018
623.244	-0.0009
623.58	-0.0046
623.916	-0.0039
624.251	-0.0037
624.586	-0.0032
624.922	-0.0021
625.257	-0.0013
625.592	-0.0012
625.927	0.0013
626.263	0.0012
626.598	-0.0008
626.933	-0.0027
627.268	-0.0029
627.603	-0.0031
627.938	-0.0069
628.272	-0.0094
628.607	-0.0093
628.942	-0.0039
629.277	0.0033
629.611	0.004
629.946	0.0034
630.281	-0.0025
630.615	-0
630.949	-0.001
631.284	-0.0025
631.618	-0.0011
631.953	-0.0001
632.287	0.0012
632.621	-0.0015
632.955	0.0013
633.289	0.0021
633.623	0.0019
633.957	0.0016
634.291	-0.002
634.625	-0.0024
634.959	-0.0081
635.293	-0.0015
635.627	-0.0039
635.96	-0.0004
636.294	-0.0064
636.627	-0.0056
636.961	-0.0093
637.294	-0.0058
637.628	-0.005
637.961	-0.0018
638.295	-0.0022
638.628	0.0002
638.961	-0.0007
639.294	0.0006
639.628	-0.0005
639.961	0.0008
640.294	-0.0009
640.627	-0.0017
640.96	-0.005
641.293	-0.003
641.625	-0.0076
641.958	-0.0068
642.291	-0.0049
642.624	0.0052
642.956	0.0061
643.289	-0.0009
643.621	-0.0069
643.954	-0.0109
644.286	-0.0121
644.619	-0.0087
644.951	-0.0026
645.283	0.0001
645.616	-0.0034
645.948	-0.0033
646.28	0.0017
646.612	0.0033
646.944	0.0052
647.276	0.0025
647.608	0.0008
647.94	0.001
648.272	0.0053
648.603	0.0058
648.935	0.004
649.267	-0.0001
649.598	-0.0012
649.93	-0.0052
650.261	-0.0013
650.593	0.0036
650.924	0.0066
651.256	0.0035
651.587	0.0035
651.918	0.0017
652.25	-0.0007
652.581	-0.0054
652.912	-0.0049
653.243	-0.0028
653.574	-0.0052
653.905	-0.0105
654.236	-0.0112
654.567	-0.0047
654.897	-0.0007
655.228	0.0032
655.559	0.0021
655.89	0.0035
656.22	-0.0004
656.551	-0.0008
656.881	-0.0024
657.212	-0.0054
657.542	-0.0042
657.872	-0.005
658.203	0.0005
658.533	0.0023
658.863	0.0013
659.193	-0.0012
659.523	-0.0035
659.853	-0.0063
660.183	-0.0074
660.513	-0.006
660.843	-0.0036
661.173	-0.0056
661.503	-0.0065
661.833	-0.0073
662.162	-0.0043
662.492	-0.003
662.822	-0.0077
663.151	-0.0086
663.481	-0.0064
663.81	-0.0048
664.139	-0.0009
664.469	-0.0042
664.798	-0.0005
665.127	-0.0029
665.456	0.0015
665.785	0.0015
666.114	-0.0013
666.443	0.0001
666.772	-0.0004
667.101	-0.0011
667.43	-0.0067
667.759	-0.0065
668.088	-0.004
668.416	-0.004
668.745	-0.0042
669.074	-0.0068
669.402	-0.0082
669.731	-0.0057
670.059	-0.0061
670.388	0.0024
670.716	-0.0021
671.044	0.0033
671.372	0
671.701	0.0012
672.029	0.0028
672.357	-0.0021
672.685	-0.0036
673.013	-0.0079
673.341	-0.0007
673.669	-0.002
673.996	-0.0024
674.324	-0.0061
674.652	-0.0038
674.98	-0.0021
675.307	-0.0018
675.635	-0.0061
675.962	-0.004
676.29	-0.003
676.617	0.0022
676.945	0.0005
677.272	0.0008
677.599	0.0004
677.926	-0.0025
678.253	0.0003
678.581	0.0003
678.908	-0.0016
679.235	-0.0032
679.561	-0.0016
679.888	0.0027
680.215	-0.0001
680.542	0.0015
680.869	-0.0009
681.195	0.0008
681.522	-0.0035
681.849	-0.004
682.175	-0.0073
682.502	-0.005
682.828	-0.004
683.154	-0.0045
683.481	-0.0009
683.807	0.0003
684.133	0.0019
684.459	-0.0024
684.785	-0.0056
685.111	-0.0039
685.437	-0.0045
685.763	-0.0047
686.089	-0.009
686.415	-0.0089
686.741	-0.0058
687.067	0.0006
687.392	-0.0011
687.718	-0.0034
688.043	-0.0042
688.369	-0.0033
688.694	-0.0024
689.02	-0.008
689.345	-0.0042
689.67	-0.0062
689.996	-0.0046
690.321	-0.0079
690.646	-0.0083
690.971	-0.0073
691.296	-0.0082
691.621	-0.0072
691.946	-0.0045
692.271	-0.0042
692.596	0.0035
692.921	0.0051
693.245	0.0079
693.57	0.0025
693.895	-0.0011
694.219	-0.0004
694.544	-0.0005
694.868	0.0024
695.193	-0.0032
695.517	-0.002
695.841	-0.0044
696.166	0.0005
696.49	-0.0037
696.814	-0.0026
697.138	-0.0045
697.462	-0.0017
697.786	-0.0035
698.11	-0.0033
698.434	-0.0034
698.758	-0.0015
699.081	-0.0016
699.405	-0.0032
699.729	-0.0009
700.052	-0.0037
700.376	-0.0013
700.7	-0.0034
701.023	-0.002
701.346	-0.0016
701.67	-0.0012
701.993	-0.0018
702.316	-0.0019
702.639	-0.0077
702.963	-0.0114
703.286	-0.0134
703.609	-0.0101
703.932	-0.0075
704.255	-0.001
704.578	0.0016
704.9	0.0061
705.223	0.0009
705.546	-0.0016
705.868	-0.0041
706.191	-0.0052
706.514	-0.0039
706.836	-0.0028
707.159	0.0017
707.481	0.0071
707.803	0.0046
708.126	-0.0013
708.448	-0.0129
708.77	-0.0093
709.092	-0.0069
709.414	0.0011
709.736	0.0009
710.058	0.0021
710.38	-0.0034
710.702	-0.0053
711.024	-0.007
711.345	-0.0021
711.667	-0.0026
711.989	0.0007
712.31	-0
712.632	-0.0011
712.953	-0.0005
713.275	-0.0015
713.596	0.0025
713.917	-0.001
714.239	-0.0048
714.56	-0.007
714.881	-0.0091
715.202	-0.0092
715.523	-0.006
715.844	-0.0008
716.165	-0.0011
716.486	-0.0068
716.807	-0.0089
717.128	-0.0043
717.448	-0.0027
717.769	-0.0008
718.09	-0.0012
718.41	0.0035
718.731	0.0025
719.051	0.0027
719.372	0.004
719.692	-0.0012
720.012	0.0026
720.332	-0.0038
720.653	-0
720.973	-0.0027
721.293	-0.0014
721.613	-0.0013
721.933	0.0008
722.253	0.0033
722.573	0.0038
722.892	0.0004
723.212	-0.007
723.532	-0.0107
723.851	-0.0074
724.171	-0.0021
724.491	-0.004
724.81	-0.01
725.129	-0.0091
725.449	-0.0046
725.768	-0.0037
726.087	-0.0069
726.407	-0.0068
726.726	-0.0055
727.045	-0.0018
727.364	-0.0026
727.683	0.0015
728.002	-0.0034
728.321	-0.0054
728.64	-0.0048
728.958	-0.0019
729.277	-0.0003
729.596	-0.0038
729.914	-0.0061
730.233	-0.0036
730.551	-0.0055
730.87	-0.006
731.188	-0.0063
731.507	-0.004
731.825	-0.0004
732.143	-0.0019
732.461	-0.001
732.779	-0.0011
733.097	-0.0049
733.415	-0.0061
733.733	-0.0064
734.051	-0.0046
734.369	-0.0049
734.687	-0.0071
735.005	-0.0042
735.322	-0.002
735.64	-0.0041
735.957	-0.0017
736.275	-0.0006
736.592	0.0048
736.91	0.0001
737.227	-0.0038
737.544	-0.006
737.862	-0.0025
738.179	-0.0028
738.496	0.0028
738.813	-0.0043
739.13	-0.0079
739.447	-0.009
739.764	-0.0073
740.081	-0.0058
740.398	-0.0116
740.714	-0.0072
741.031	-0.0021
741.348	0.0011
741.664	-0.0027
741.981	-0.0026
742.297	-0.0018
742.614	-0.0013
742.93	-0.0036
743.246	-0.0056
743.563	-0.0036
743.879	-0.0045
744.195	-0.0034
744.511	-0.0079
744.827	-0.008
745.143	-0.0138
745.459	-0.0129
745.775	-0.0082
746.091	-0.0044
746.406	0.0001
746.722	-0.0042
747.038	-0.006
747.353	-0.0089
747.669	-0.0102
747.984	-0.0147
748.3	-0.0141
748.615	-0.0167
748.93	-0.007
749.246	-0.0074
749.561	-0.0034
749.876	-0.0056
750.191	-0.0044
750.506	-0.008
750.821	-0.003
751.136	-0.0035
751.451	0.0044
751.766	-0.004
752.08	-0.0064
752.395	-0.0102
752.71	-0.007
753.024	-0.0033
753.339	0.0012
753.653	0.0014
753.968	-0.0032
754.282	-0.0078
754.596	-0.0056
754.911	-0.0029
755.225	-0
755.539	-0.0039
755.853	-0.0048
756.167	-0.0068
756.481	-0.0086
756.795	-0.0075
757.109	-0.0024
757.423	-0.0001
757.736	0.0009
758.05	-0.0041
758.364	-0.003
758.677	-0.0041
758.991	-0.0028
759.304	-0.0032
759.618	-0.0003
759.931	-0.0045
760.244	-0.0039
760.558	-0.0055
760.871	-0.0037
761.184	-0.0044
761.497	-0.0022
761.81	-0.0008
762.123	-0.0053
762.436	-0.0051
762.749	-0.0063
763.062	-0.0002
763.374	-0.0025
763.687	-0.0013
764	-0.0015
764.312	-0.0023
764.625	0.0001
764.937	-0.0002
765.25	0.0038
765.562	0.004
765.874	0.003
766.186	-0.0029
766.499	-0.0086
766.811	-0.0091
767.123	-0.0067
767.435	-0.008
767.747	-0.0079
768.059	-0.0068
768.37	-0.0046
768.682	-0.0032
768.994	-0.0097
769.306	-0.0094
769.617	-0.009
769.929	0.0032
770.24	0.007
770.552	0.0019
770.863	-0.0095
771.174	-0.0102
771.486	-0.0085
771.797	-0.0045
772.108	-0.0055
772.419	-0.0032
772.73	-0.0039
773.041	-0.0032
773.352	-0.0039
773.663	-0.0017
773.974	-0.0006
774.285	-0.0012
774.595	-0.0012
774.906	0.0007
775.217	0.0006
775.527	-0.0003
775.838	-0.0047
776.148	-0.0052
776.458	-0.0066
776.769	-0.0073
777.079	-0.0057
777.389	-0.0072
777.699	-0.0027
778.009	-0.0041
778.319	-0.0053
778.629	-0.0058
778.939	-0.0067
779.249	0.0005
779.559	-0.0034
779.869	-0.0054
780.178	-0.0126
780.488	-0.0125
780.798	-0.0077
781.107	-0.0028
781.417	-0.0068
781.726	-0.0123
782.035	-0.0138
782.345	-0.0075
782.654	-0.0074
782.963	-0.0057
783.272	-0.0091
783.581	-0.0062
783.89	-0.0039
784.199	-0.0005
784.508	-0.005
784.817	-0.0118
785.126	-0.0173
785.434	-0.0092
785.743	-0.0018
786.052	-0.0004
786.36	-0.0061
786.669	-0.0123
786.977	-0.0122
787.285	-0.008
787.594	-0.0043
787.902	-0.0026
788.21	-0.0055
788.518	-0.0015
788.826	0.0021
789.135	0.004
789.442	-0.0014
789.75	-0.0053
790.058	-0.0092
790.366	-0.0072
790.674	-0.0076
790.981	-0.0032
791.289	-0.0061
791.597	-0.0098
791.904	-0.012
792.212	-0.0096
792.519	-0.0052
792.826	-0.0022
793.134	-0.0014
793.441	-0
793.748	-0.0003
794.055	-0.0008
794.362	0.0004
794.669	0.0004
794.976	-0.002
795.283	-0.0043
795.59	-0.0019
795.897	-0.0018
796.203	-0.0072
796.51	-0.0169
796.817	-0.0154
797.123	-0.008
797.43	-0.0032
797.736	-0.0041
798.042	-0.0061
798.349	-0.0057
798.655	-0.0031
798.961	-0.0078
799.267	-0.0109
799.573	-0.0136
799.879	-0.0146
800.185	-0.0075
800.491	-0.003
800.797	0.0048
801.103	0.0034
801.408	0.0044
801.714	0.0012
802.02	-0.0015
802.325	0.0008
802.631	-0.0059
802.936	-0.0066
803.242	-0.0138
803.547	-0.0058
803.852	-0.006
804.157	-0.0082
804.462	-0.0087
804.768	-0.0073
805.073	-0.0031
805.378	-0.0016
805.682	-0.008
805.987	-0.007
806.292	-0.0055
806.597	0.0094
806.902	0.0042
807.206	-0.0008
807.511	-0.0133
807.815	-0.0151
808.12	-0.0163
808.424	-0.011
808.728	-0.0067
809.033	-0.0058
809.337	-0.0118
809.641	-0.0111
809.945	-0.0087
810.249	-0.0031
810.553	-0.0022
810.857	-0.0076
811.161	-0.0037
811.465	-0.0028
811.768	-0.0019
812.072	-0.0115
812.376	-0.0117
812.679	-0.0109
812.983	-0.0073
813.286	-0.0117
813.59	-0.0115
813.893	-0.0108
814.196	-0.0079
814.499	0.0013
814.803	0.0022
815.106	-0.0016
815.409	-0.0083
815.712	-0.0082
816.015	-0.0042
816.318	-0.0101
816.62	-0.0106
816.923	-0.0148
817.226	-0.0134
817.528	-0.0148
817.831	-0.0114
818.133	-0.0106
818.436	-0.0093
818.738	-0.0053
819.041	-0.005
819.343	-0.0026
819.645	-0.0086
819.947	-0.0057
820.249	-0.014
820.551	-0.016
820.853	-0.017
821.155	-0.0175
821.457	-0.0086
821.759	-0.0058
822.061	0.0053
822.362	0.0066
822.664	0.001
822.966	0.0034
823.267	0.0011
823.569	0.0039
823.87	-0.0116
824.171	-0.0127
824.473	-0.0161
824.774	-0.0073
825.075	-0.0117
825.376	-0.0112
825.677	-0.005
825.978	-0.0022
826.279	-0.001
826.58	-0.0033
826.881	-0.0051
827.181	-0.0027
827.482	-0.0077
827.783	-0.0039
828.083	-0.0037
828.384	-0.006
828.684	-0.0183
828.985	-0.0172
829.285	-0.0195
829.585	-0.008
829.885	-0.0105
830.185	-0.0156
830.486	-0.016
830.786	-0.011
831.086	-0.0021
831.385	-0.0049
831.685	-0.0166
831.985	-0.0172
832.285	-0.0181
832.585	-0.0078
832.884	0.003
833.184	0.0047
833.483	-0.0054
833.783	-0.0196
834.082	-0.024
834.381	-0.0135
834.681	-0.0108
834.98	0.0003
835.279	-0.0005
835.578	0.0027
835.877	0.0043
836.176	0.0057
836.475	0.0083
836.774	0.0027
837.072	-0.002
837.371	0.0063
837.67	0.0086
837.968	0.0117
838.267	0.0009
838.565	-0.0021
838.864	-0.0073
839.162	-0.0146
839.46	-0.0236
839.759	-0.017
840.057	-0.0098
840.355	-0.0013
840.653	0.0004
840.951	0.0019
841.249	0.0011
841.547	-0.0047
841.845	0.001
842.142	0.0067
842.44	-0.0005
842.738	-0.0107
843.035	-0.0215
843.333	-0.0136
843.63	-0.0092
843.928	-0.0013
844.225	-0.0027
844.522	0.0027
844.82	-0.0053
845.117	0.0066
845.414	-0.0036
845.711	0.0104
846.008	0.001
846.305	-0.0083
846.602	-0.0156
846.898	-0.0073
847.195	0.0032
847.492	0.0086
847.788	-0.0084
848.085	0.0087
848.382	0.0031
848.678	0.003
848.974	-0.0143
849.271	-0.0093
849.567	0.0035
849.863	0.0028
850.159	-0.0094
850.455	-0.0149
850.751	-0.0118
851.047	-0.0085
851.343	-0.014
851.639	-0.0166
851.935	-0.0225
852.23	-0.0254
852.526	-0.0286
852.822	-0.029
853.117	-0.0147
853.413	-0.0108
853.708	-0.0039
854.003	0.0043
854.299	0.0101
854.594	0.0052
854.889	-0.0266
855.184	-0.0329
855.479	-0.0128
855.774	0.0186
856.069	0.0096
856.364	-0.0036
856.659	-0.0129
856.954	0.0075
857.248	0.0064
857.543	0.0135
857.837	0.0013
858.132	0.0085
858.426	-0.0083
858.721	-0.0192
859.015	-0.0109
859.309	0.0077
859.604	0.0172
859.898	0.0037
860.192	-0.0076
860.486	-0.0182
860.78	-0.013
861.074	-0.0047
861.367	0.0146
861.661	0.0027
861.955	-0.0094
862.248	-0.0104
862.542	-0.0008
862.836	0.0058
863.129	-0.0134
863.422	-0.0157
863.716	-0.0166
864.009	0.0096
864.302	-0.0058
864.595	-0.0205
864.889	-0.0439
865.182	-0.0293
865.475	-0.0106
865.767	-0.0089
866.06	0.0084
866.353	-0.0139
866.646	-0.009
866.938	-0.0407
867.231	-0.0361
867.524	-0.0257
867.816	0.002
868.109	0.0081
868.401	-0.0052
868.693	0.0007
868.985	-0.0061
869.278	0.0026
869.57	-0.0259
869.862	-0.0124
870.154	-0.0193
870.446	-0.0236
870.738	-0.0422
871.029	-0.0522
871.321	-0.046
871.613	-0.0203
871.904	-0.007
872.196	0.0048
872.487	0.0145
872.779	0.0041
873.07	-0.0054
873.362	-0.0036
873.653	0.0232
873.944	0.008
874.235	-0.016
874.526	-0.0372
874.817	-0.034
875.108	-0.025
875.399	-0.0269
875.69	0.0004
875.981	-0.0202
876.271	-0.0177
876.562	-0.0232
876.853	-0.0255
877.143	-0.016
877.434	-0.0314
877.724	-0.0346
878.014	-0.0317
878.305	-0.0438
878.595	-0.0287
878.885	-0.035
879.175	-0.0176
879.465	-0.0197
879.755	-0.0089
880.045	-0.0049
880.335	-0.0049
880.624	-0.0194
880.914	-0.0194
