Data from SC_080717_1b_Absorbance_10-41-20-330.txt Node
Date: Fri Aug 11 10:41:20 MDT 2017
User: Tank Lab
Spectrometer: FLMS01220
Trigger mode: 0
Integration Time (sec): 1.000000E-1
Scans to average: 10
Electric dark correction enabled: true
Nonlinearity correction enabled: false
Boxcar width: 1
XAxis mode: Wavelengths
Number of Pixels in Spectrum: 2048
>>>>>Begin Spectral Data<<<<<
179.47	0.0675
179.856	0.0675
180.241	0.2999
180.626	-0
181.011	-0.2493
181.396	-0
181.781	-0
182.166	0.6975
182.551	-0
182.936	1.2978
183.321	-0
183.706	0.8076
184.091	-0
184.476	-0.5219
184.86	0.1696
185.245	0.3647
185.63	-0.8418
186.015	0.1184
186.399	-0.4816
186.784	-1.1908
187.169	-0.3875
187.553	-0
187.938	0.3837
188.322	0.1809
188.707	0.1071
189.091	0.0661
189.475	0.0742
189.86	0.0765
190.244	0.1367
190.629	0.1628
191.013	0.2077
191.397	0.2343
191.781	0.2817
192.165	0.3234
192.55	0.3758
192.934	0.4218
193.318	0.4436
193.702	0.4488
194.086	0.4588
194.47	0.4644
194.854	0.4674
195.238	0.4556
195.622	0.4534
196.006	0.4431
196.389	0.4447
196.773	0.4368
197.157	0.4371
197.541	0.4277
197.924	0.4229
198.308	0.4125
198.692	0.4057
199.075	0.3958
199.459	0.3896
199.843	0.3859
200.226	0.372
200.61	0.3688
200.993	0.3603
201.376	0.3591
201.76	0.3525
202.143	0.347
202.527	0.339
202.91	0.3276
203.293	0.3226
203.676	0.3225
204.059	0.323
204.443	0.3167
204.826	0.3094
205.209	0.3046
205.592	0.2965
205.975	0.2908
206.358	0.2875
206.741	0.2885
207.124	0.2881
207.507	0.2851
207.89	0.2851
208.273	0.2836
208.655	0.2779
209.038	0.2761
209.421	0.2708
209.804	0.2694
210.186	0.2637
210.569	0.2641
210.951	0.2636
211.334	0.2632
211.717	0.2622
212.099	0.2563
212.482	0.2559
212.864	0.2557
213.246	0.2567
213.629	0.2508
214.011	0.2452
214.393	0.243
214.776	0.2427
215.158	0.2408
215.54	0.2396
215.922	0.2369
216.305	0.2359
216.687	0.2315
217.069	0.229
217.451	0.2269
217.833	0.2258
218.215	0.2246
218.597	0.2195
218.979	0.2189
219.361	0.2154
219.742	0.2118
220.124	0.2094
220.506	0.2067
220.888	0.2061
221.27	0.2038
221.651	0.2018
222.033	0.2007
222.415	0.1962
222.796	0.1951
223.178	0.1937
223.559	0.1931
223.941	0.1913
224.322	0.1893
224.704	0.1865
225.085	0.1848
225.466	0.1814
225.848	0.1811
226.229	0.1781
226.61	0.1785
226.992	0.1746
227.373	0.1717
227.754	0.1663
228.135	0.165
228.516	0.165
228.897	0.1655
229.278	0.1628
229.659	0.1613
230.04	0.1595
230.421	0.1586
230.802	0.1581
231.183	0.1554
231.564	0.1551
231.944	0.1512
232.325	0.1499
232.706	0.1479
233.087	0.1472
233.467	0.1464
233.848	0.1445
234.229	0.142
234.609	0.1418
234.99	0.1401
235.37	0.14
235.751	0.139
236.131	0.1384
236.511	0.1384
236.892	0.1339
237.272	0.1339
237.652	0.1318
238.033	0.1336
238.413	0.1324
238.793	0.1318
239.173	0.1304
239.553	0.1281
239.933	0.1272
240.313	0.1277
240.694	0.1283
241.074	0.1273
241.453	0.1258
241.833	0.125
242.213	0.1247
242.593	0.1246
242.973	0.1233
243.353	0.1202
243.732	0.1184
244.112	0.1172
244.492	0.1182
244.872	0.1183
245.251	0.1182
245.631	0.1176
246.01	0.1157
246.39	0.1151
246.769	0.1149
247.149	0.1151
247.528	0.1162
247.908	0.1139
248.287	0.1136
248.666	0.1109
249.045	0.1123
249.425	0.1126
249.804	0.1115
250.183	0.1104
250.562	0.1097
250.941	0.112
251.32	0.1124
251.699	0.1112
252.078	0.1087
252.457	0.1069
252.836	0.1064
253.215	0.106
253.594	0.1056
253.973	0.1058
254.352	0.1061
254.731	0.106
255.109	0.1044
255.488	0.1031
255.867	0.1032
256.245	0.1031
256.624	0.1028
257.002	0.102
257.381	0.1011
257.759	0.1023
258.138	0.101
258.516	0.1022
258.895	0.1001
259.273	0.101
259.651	0.0998
260.03	0.0994
260.408	0.0997
260.786	0.1
261.164	0.1014
261.542	0.1001
261.921	0.0973
262.299	0.0944
262.677	0.0939
263.055	0.095
263.433	0.096
263.811	0.0977
264.188	0.0976
264.566	0.0979
264.944	0.0956
265.322	0.0942
265.7	0.0936
266.077	0.0926
266.455	0.0942
266.833	0.0921
267.21	0.0939
267.588	0.0921
267.966	0.0928
268.343	0.0905
268.721	0.0914
269.098	0.0917
269.475	0.0914
269.853	0.0881
270.23	0.0868
270.607	0.088
270.985	0.0881
271.362	0.0876
271.739	0.0851
272.116	0.0854
272.494	0.0864
272.871	0.0852
273.248	0.0843
273.625	0.0824
274.002	0.082
274.379	0.0827
274.756	0.0839
275.132	0.0839
275.509	0.0837
275.886	0.0816
276.263	0.081
276.64	0.0799
277.016	0.0801
277.393	0.0796
277.77	0.0797
278.146	0.0797
278.523	0.0798
278.899	0.0797
279.276	0.0798
279.652	0.0799
280.029	0.0781
280.405	0.0757
280.782	0.0757
281.158	0.0765
281.534	0.0782
281.91	0.0766
282.287	0.0755
282.663	0.0735
283.039	0.074
283.415	0.0745
283.791	0.0736
284.167	0.0722
284.543	0.0716
284.919	0.0708
285.295	0.0708
285.671	0.0693
286.047	0.0699
286.423	0.0701
286.799	0.07
287.174	0.07
287.55	0.0707
287.926	0.0717
288.301	0.0708
288.677	0.0682
289.053	0.0667
289.428	0.0653
289.804	0.0654
290.179	0.0644
290.555	0.065
290.93	0.0636
291.305	0.0631
291.681	0.0621
292.056	0.0628
292.431	0.0638
292.806	0.065
293.182	0.065
293.557	0.065
293.932	0.0643
294.307	0.0638
294.682	0.0617
295.057	0.0613
295.432	0.0602
295.807	0.0612
296.182	0.0613
296.557	0.0617
296.932	0.0608
297.306	0.0615
297.681	0.061
298.056	0.0605
298.43	0.0583
298.805	0.0576
299.18	0.0571
299.554	0.0556
299.929	0.0558
300.303	0.0567
300.678	0.0564
301.052	0.0573
301.427	0.0564
301.801	0.0558
302.175	0.0539
302.55	0.0532
302.924	0.0551
303.298	0.0562
303.672	0.0554
304.046	0.0554
304.421	0.0547
304.795	0.0563
305.169	0.0546
305.543	0.0542
305.917	0.0525
306.291	0.0528
306.664	0.0514
307.038	0.0505
307.412	0.0493
307.786	0.0496
308.16	0.0499
308.533	0.0493
308.907	0.0495
309.281	0.0501
309.654	0.0504
310.028	0.0485
310.401	0.0476
310.775	0.047
311.148	0.0475
311.522	0.0473
311.895	0.0489
312.268	0.0491
312.642	0.0496
313.015	0.0478
313.388	0.0485
313.761	0.0477
314.135	0.0459
314.508	0.0451
314.881	0.0429
315.254	0.0429
315.627	0.0419
316	0.0459
316.373	0.0461
316.746	0.0459
317.118	0.0427
317.491	0.0421
317.864	0.0427
318.237	0.0435
318.61	0.0437
318.982	0.0416
319.355	0.0401
319.727	0.0382
320.1	0.0389
320.473	0.0384
320.845	0.0387
321.218	0.0383
321.59	0.0385
321.962	0.0397
322.335	0.0392
322.707	0.039
323.079	0.0391
323.452	0.0398
323.824	0.041
324.196	0.0413
324.568	0.0411
324.94	0.0398
325.312	0.0368
325.684	0.0366
326.056	0.0368
326.428	0.039
326.8	0.0398
327.172	0.0389
327.544	0.0383
327.915	0.0348
328.287	0.0366
328.659	0.0352
329.031	0.0359
329.402	0.0332
329.774	0.0345
330.145	0.0342
330.517	0.0344
330.888	0.0332
331.26	0.0335
331.631	0.0323
332.003	0.031
332.374	0.0303
332.745	0.0313
333.117	0.0314
333.488	0.0323
333.859	0.0323
334.23	0.0322
334.601	0.0311
334.972	0.03
335.343	0.0295
335.714	0.0289
336.085	0.0277
336.456	0.0276
336.827	0.0278
337.198	0.0286
337.569	0.0277
337.94	0.0282
338.31	0.0288
338.681	0.0301
339.052	0.0295
339.422	0.0292
339.793	0.028
340.164	0.0282
340.534	0.0289
340.905	0.029
341.275	0.0275
341.645	0.0256
342.016	0.0241
342.386	0.0255
342.756	0.0259
343.127	0.0277
343.497	0.0279
343.867	0.0257
344.237	0.0252
344.607	0.0227
344.977	0.0258
345.347	0.024
345.717	0.026
346.087	0.0235
346.457	0.0247
346.827	0.0235
347.197	0.0239
347.567	0.0242
347.936	0.0247
348.306	0.0254
348.676	0.0265
349.046	0.0261
349.415	0.025
349.785	0.0238
350.154	0.0238
350.524	0.0245
350.893	0.023
351.263	0.0227
351.632	0.0229
352.001	0.0229
352.371	0.0235
352.74	0.0236
353.109	0.0229
353.478	0.0228
353.847	0.0222
354.217	0.0236
354.586	0.023
354.955	0.0227
355.324	0.0229
355.693	0.0223
356.062	0.0211
356.43	0.0209
356.799	0.0203
357.168	0.0213
357.537	0.0197
357.906	0.0202
358.274	0.0212
358.643	0.0226
359.011	0.0217
359.38	0.0192
359.749	0.0172
360.117	0.0186
360.486	0.0189
360.854	0.0204
361.222	0.0192
361.591	0.0163
361.959	0.016
362.327	0.0155
362.695	0.0203
363.064	0.0214
363.432	0.0213
363.8	0.0195
364.168	0.02
364.536	0.0199
364.904	0.0195
365.272	0.0178
365.64	0.0182
366.008	0.0182
366.376	0.0177
366.743	0.019
367.111	0.0172
367.479	0.0173
367.847	0.0136
368.214	0.0155
368.582	0.0158
368.949	0.0171
369.317	0.0175
369.684	0.0157
370.052	0.0174
370.419	0.0166
370.787	0.017
371.154	0.0151
371.521	0.0132
371.889	0.0123
372.256	0.0118
372.623	0.0129
372.99	0.0143
373.357	0.0137
373.724	0.0144
374.091	0.0134
374.458	0.0148
374.825	0.0152
375.192	0.0156
375.559	0.0157
375.926	0.0167
376.293	0.0144
376.659	0.0158
377.026	0.014
377.393	0.0172
377.759	0.0164
378.126	0.0156
378.492	0.0134
378.859	0.0133
379.225	0.0149
379.592	0.0159
379.958	0.0137
380.325	0.0122
380.691	0.013
381.057	0.0147
381.423	0.0146
381.79	0.0147
382.156	0.014
382.522	0.0141
382.888	0.0116
383.254	0.0111
383.62	0.0138
383.986	0.0149
384.352	0.0172
384.718	0.0145
385.084	0.0146
385.449	0.0124
385.815	0.0115
386.181	0.012
386.547	0.012
386.912	0.0133
387.278	0.0116
387.643	0.0117
388.009	0.0109
388.374	0.0131
388.74	0.0124
389.105	0.0116
389.471	0.0108
389.836	0.0113
390.201	0.0116
390.566	0.0097
390.932	0.0093
391.297	0.0097
391.662	0.0111
392.027	0.011
392.392	0.0106
392.757	0.0117
393.122	0.0113
393.487	0.0128
393.852	0.0124
394.217	0.0122
394.582	0.0105
394.946	0.0098
395.311	0.0091
395.676	0.0089
396.04	0.0073
396.405	0.0081
396.77	0.0076
397.134	0.0113
397.499	0.0114
397.863	0.0111
398.227	0.008
398.592	0.0086
398.956	0.0097
399.32	0.0109
399.685	0.0123
400.049	0.0117
400.413	0.0111
400.777	0.0085
401.141	0.0085
401.505	0.0099
401.869	0.0105
402.233	0.0138
402.597	0.0125
402.961	0.0127
403.325	0.0121
403.689	0.0116
404.053	0.0115
404.416	0.0091
404.78	0.007
405.144	0.0043
405.507	0.0041
405.871	0.005
406.234	0.0092
406.598	0.0095
406.961	0.0129
407.325	0.0123
407.688	0.0104
408.051	0.0101
408.415	0.0094
408.778	0.0097
409.141	0.0078
409.504	0.0071
409.867	0.0087
410.23	0.0087
410.593	0.0092
410.956	0.0069
411.319	0.0073
411.682	0.0067
412.045	0.0068
412.408	0.0075
412.771	0.0064
413.134	0.0072
413.496	0.0056
413.859	0.0074
414.222	0.0089
414.584	0.0078
414.947	0.0062
415.309	0.0058
415.672	0.008
416.034	0.0089
416.396	0.007
416.759	0.0063
417.121	0.0084
417.483	0.0117
417.846	0.0131
418.208	0.0121
418.57	0.0107
418.932	0.0102
419.294	0.0088
419.656	0.0094
420.018	0.0079
420.38	0.0093
420.742	0.008
421.104	0.0056
421.466	0.0056
421.827	0.0065
422.189	0.0093
422.551	0.0065
422.912	0.0041
423.274	0.0013
423.636	0.0023
423.997	0.0037
424.359	0.0045
424.72	0.0065
425.081	0.0056
425.443	0.0069
425.804	0.0047
426.165	0.0049
426.527	0.0049
426.888	0.0048
427.249	0.0044
427.61	0.0044
427.971	0.0048
428.332	0.0053
428.693	0.0073
429.054	0.0086
429.415	0.0104
429.776	0.0099
430.137	0.0089
430.498	0.0077
430.858	0.0049
431.219	0.0034
431.58	0.0044
431.94	0.0057
432.301	0.0052
432.661	0.004
433.022	0.0029
433.382	0.0049
433.743	0.0045
434.103	0.0052
434.463	0.0049
434.824	0.005
435.184	0.0062
435.544	0.0053
435.904	0.0058
436.264	0.0041
436.624	0.0049
436.985	0.004
437.345	0.0053
437.704	0.0064
438.064	0.0056
438.424	0.0046
438.784	0.0057
439.144	0.0063
439.504	0.0068
439.863	0.0025
440.223	0.0046
440.583	0.0055
440.942	0.0084
441.302	0.0056
441.661	0.0045
442.021	0.0023
442.38	0.0044
442.739	0.0051
443.099	0.0059
443.458	0.0083
443.817	0.0086
444.176	0.0075
444.536	0.0045
444.895	0.0034
445.254	0.0031
445.613	0.0029
445.972	0.0017
446.331	0.0049
446.69	0.0052
447.049	0.0078
447.407	0.0053
447.766	0.0044
448.125	0.0029
448.484	0.0023
448.842	0.0015
449.201	0.0001
449.559	0.0014
449.918	0.0021
450.276	0.0039
450.635	0.0049
450.993	0.0045
451.352	0.0047
451.71	0.0028
452.068	0.0029
452.426	0.002
452.785	0.0027
453.143	0.0035
453.501	0.0009
453.859	0.0023
454.217	0.0033
454.575	0.008
454.933	0.0069
455.291	0.0071
455.649	0.0055
456.006	0.0029
456.364	0.0023
456.722	0.0017
457.079	0.0041
457.437	0.0003
457.795	0.001
458.152	-0.0002
458.51	0.0037
458.867	0.0032
459.225	0.0043
459.582	0.0049
459.939	0.0074
460.297	0.0113
460.654	0.0102
461.011	0.0073
461.368	0.001
461.725	-0.0004
462.082	-0.0007
462.44	0.0008
462.797	0.0012
463.153	0.0028
463.51	0.0039
463.867	0.0048
464.224	0.0056
464.581	0.0053
464.938	0.0039
465.294	0.0025
465.651	0.0018
466.008	0.002
466.364	0.0024
466.721	0.0028
467.077	0.003
467.434	-0.0003
467.79	0.0006
468.146	0.0011
468.503	0.0028
468.859	0.0013
469.215	0.0024
469.571	0.0034
469.927	0.002
470.284	0.0003
470.64	-0.0006
470.996	-0.0008
471.352	-0.0005
471.707	0.0005
472.063	0.0039
472.419	0.0065
472.775	0.0071
473.131	0.0056
473.486	0.005
473.842	0.0047
474.198	0.0096
474.553	0.0078
474.909	0.0093
475.264	0.0054
475.62	0.0034
475.975	0.0011
476.331	0.0015
476.686	0.001
477.041	0.0014
477.396	0.0004
477.752	0.0028
478.107	0.0027
478.462	0.0043
478.817	0.0048
479.172	0.004
479.527	0.0024
479.882	0.0039
480.237	0.003
480.591	0.0029
480.946	0.0023
481.301	0.004
481.656	0.0033
482.01	0.0008
482.365	-0.0001
482.72	-0.0003
483.074	0.0009
483.429	0.0031
483.783	0.0027
484.137	0.0016
484.492	-0.0004
484.846	0.0011
485.2	0.0014
485.555	0.0005
485.909	0.0007
486.263	0.0018
486.617	0.0005
486.971	-0.0004
487.325	0.0004
487.679	0.0035
488.033	0.0033
488.387	0.0018
488.741	0.0007
489.094	0.0022
489.448	0.0022
489.802	0.0028
490.156	0.0032
490.509	0.0024
490.863	0.0019
491.216	0.001
491.57	0.0018
491.923	0.0032
492.277	0.0049
492.63	0.0039
492.983	0.0019
493.337	-0.0014
493.69	-0.0006
494.043	0.0002
494.396	0.0018
494.749	0.0058
495.102	0.0046
495.455	0.004
495.808	0
496.161	0.0017
496.514	0.0009
496.867	0.0024
497.22	0.0012
497.572	0.0018
497.925	0.001
498.278	-0.0008
498.63	-0.0007
498.983	-0.0003
499.335	0.0015
499.688	0.002
500.04	0.0014
500.393	0.0007
500.745	-0.0015
501.097	-0.0011
501.449	0.0003
501.802	0.0016
502.154	-0.0006
502.506	-0.0003
502.858	-0.0016
503.21	0
503.562	-0.0006
503.914	0.0015
504.266	0.0003
504.618	0.0013
504.969	-0
505.321	0.0013
505.673	0.0001
506.025	0.0028
506.376	0.0042
506.728	0.0046
507.079	0.0017
507.431	-0.0004
507.782	-0.002
508.134	-0.001
508.485	-0.0006
508.836	-0.0001
509.188	-0.0011
509.539	-0.0028
509.89	-0.0015
510.241	-0.0006
510.592	0.0021
510.943	-0.0012
511.294	-0.0036
511.645	-0.0027
511.996	0
512.347	0.0024
512.698	-0.0017
513.049	-0.0032
513.399	-0.0046
513.75	0.0005
514.101	0.001
514.451	0.0038
514.802	-0.001
515.152	-0.0004
515.503	-0.0001
515.853	0.001
516.203	0.0013
516.554	0.0025
516.904	0.0039
517.254	0.0061
517.604	0.0028
517.955	0.0026
518.305	0
518.655	0.0024
519.005	0.0001
519.355	0.0009
519.705	-0.0006
520.055	0.0013
520.404	0.0012
520.754	0.0012
521.104	-0.0019
521.454	-0.0012
521.803	-0.0011
522.153	-0.0008
522.502	-0.0001
522.852	-0.0012
523.201	0.0009
523.551	-0.0028
523.9	-0.0002
524.249	-0.0019
524.599	-0.0004
524.948	-0.0037
525.297	-0.0016
525.646	-0.0012
525.995	0.0018
526.344	0.0023
526.694	0.0032
527.042	0.0046
527.391	0.003
527.74	0.002
528.089	-0.0025
528.438	-0.0007
528.787	-0.0018
529.135	-0.0003
529.484	-0.002
529.833	0.0005
530.181	0.0022
530.53	0.0016
530.878	0.0017
531.227	0.0027
531.575	0.0014
531.923	0
532.271	-0.0028
532.62	0.0008
532.968	0.0022
533.316	0.0011
533.664	-0.0013
534.012	-0.0022
534.36	-0.0021
534.708	-0.0024
535.056	-0.0035
535.404	-0.0007
535.752	0.0009
536.1	-0.0002
536.447	-0.0027
536.795	-0.0002
537.143	-0.0013
537.49	-0.0004
537.838	-0.004
538.185	0.0003
538.533	0.0005
538.88	-0.0001
539.228	-0.0055
539.575	-0.0041
539.922	0.0011
540.269	0.004
540.617	0.0025
540.964	-0.0019
541.311	-0.0043
541.658	-0.0066
542.005	-0.0049
542.352	-0.0038
542.699	-0.0035
543.045	-0.0041
543.392	-0.0028
543.739	-0.0001
544.086	-0.0017
544.432	0.0011
544.779	0.003
545.126	0.0037
545.472	0.0017
545.819	-0.0009
546.165	-0.0018
546.512	-0.0059
546.858	-0.0074
547.204	-0.0073
547.55	-0.0028
547.897	-0.0014
548.243	0.0009
548.589	-0.0035
548.935	-0.0036
549.281	-0.0052
549.627	-0.0035
549.973	-0.0035
550.319	-0.0011
550.665	-0.0016
551.01	-0.0011
551.356	-0.0038
551.702	-0.0038
552.048	-0.0042
552.393	-0.0014
552.739	0.0033
553.084	0.0039
553.43	0.0011
553.775	-0.0017
554.12	-0.0008
554.466	-0.0013
554.811	-0.0007
555.156	-0.003
555.502	-0.0028
555.847	-0.0035
556.192	-0.0034
556.537	-0.0024
556.882	-0.0019
557.227	-0.0003
557.572	0.0007
557.917	-0.0014
558.261	-0.0009
558.606	-0.0015
558.951	-0.0013
559.295	-0.0047
559.64	-0.0065
559.985	-0.0036
560.329	-0.0006
560.674	0.0027
561.018	0.001
561.363	-0.0019
561.707	-0.0052
562.051	-0.0064
562.395	-0.0072
562.74	-0.0065
563.084	-0.0072
563.428	-0.0063
563.772	-0.0058
564.116	-0.0047
564.46	-0.0041
564.804	-0.0047
565.148	-0.0016
565.492	-0.0014
565.835	-0.0006
566.179	-0.0039
566.523	-0.0037
566.866	-0.0054
567.21	-0.0055
567.554	-0.0058
567.897	-0.0035
568.24	0.0014
568.584	0.0033
568.927	0.0026
569.271	-0.003
569.614	-0.0037
569.957	-0.0024
570.3	-0.0029
570.643	-0.0036
570.986	-0.0043
571.329	0.001
571.672	0.0005
572.015	-0.0036
572.358	-0.0077
572.701	-0.007
573.044	-0.0042
573.387	0.0007
573.729	0.0021
574.072	0.0014
574.414	-0.0013
574.757	-0.0024
575.099	-0.0022
575.442	-0.0026
575.784	-0.0026
576.127	-0.0009
576.469	-0.0018
576.811	-0.0022
577.153	-0.0036
577.496	-0.0027
577.838	-0.0039
578.18	-0.0032
578.522	-0.0033
578.864	-0.0028
579.206	-0.0029
579.548	-0.0038
579.889	-0.0032
580.231	-0.0037
580.573	-0.0034
580.915	-0.0015
581.256	-0.0028
581.598	-0.0044
581.939	-0.0067
582.281	-0.0076
582.622	-0.0035
582.964	-0.0046
583.305	-0.0017
583.646	-0.002
583.988	0.0004
584.329	-0.0013
584.67	-0.002
585.011	-0.0037
585.352	-0.0035
585.693	-0.0045
586.034	-0.002
586.375	-0.0016
586.716	-0.0015
587.057	-0.0052
587.398	-0.0051
587.738	-0.006
588.079	-0.0045
588.42	-0.005
588.76	-0.0044
589.101	-0.0064
589.441	-0.0036
589.782	-0.0025
590.122	-0.0012
590.463	-0.0022
590.803	-0.0026
591.143	-0.0045
591.483	-0.0054
591.823	-0.0059
592.164	-0.0053
592.504	-0.005
592.844	-0.0045
593.184	-0.0009
593.523	-0.0024
593.863	-0.0004
594.203	-0.0019
594.543	-0.0009
594.883	-0.0018
595.222	-0.0025
595.562	-0.004
595.901	-0.0055
596.241	-0.0046
596.58	-0.0041
596.92	-0.0019
597.259	-0.0015
597.599	0.0003
597.938	-0.0011
598.277	-0.0011
598.616	-0.0001
598.955	0.0012
599.295	-0.003
599.634	-0.0012
599.973	-0.0037
600.312	-0.0005
600.65	-0.0032
600.989	0.001
601.328	0.0012
601.667	-0.0002
602.005	-0.0027
602.344	-0.0038
602.683	-0.0039
603.021	-0.0042
603.36	-0.0052
603.698	-0.004
604.037	-0.0049
604.375	-0.0057
604.713	-0.0047
605.052	-0.0038
605.39	-0.0016
605.728	-0.0016
606.066	-0.0018
606.404	-0.0022
606.742	-0.0031
607.08	-0.0064
607.418	-0.0069
607.756	-0.0084
608.094	-0.0064
608.431	-0.0055
608.769	-0.0056
609.107	-0.0035
609.444	-0.0061
609.782	-0.0029
610.12	-0.0036
610.457	-0.0018
610.794	-0.0008
611.132	-0.0008
611.469	-0.0028
611.806	-0.0079
612.144	-0.0089
612.481	-0.008
612.818	-0.0079
613.155	-0.0084
613.492	-0.0084
613.829	-0.005
614.166	-0.0053
614.503	-0.0045
614.84	-0.006
615.176	-0.0052
615.513	-0.0042
615.85	-0.0019
616.187	-0.0009
616.523	-0.0015
616.86	-0.004
617.196	-0.0059
617.533	-0.0054
617.869	-0.0044
618.205	-0.0039
618.542	-0.007
618.878	-0.0083
619.214	-0.0071
619.55	-0.0054
619.886	-0.0045
620.222	-0.0039
620.558	-0.0041
620.894	-0.0052
621.23	-0.0082
621.566	-0.0065
621.902	-0.0083
622.238	-0.0062
622.573	-0.008
622.909	-0.0087
623.244	-0.0113
623.58	-0.0141
623.916	-0.0128
624.251	-0.0074
624.586	-0.0014
624.922	-0.0024
625.257	-0.0068
625.592	-0.009
625.927	-0.0091
626.263	-0.0063
626.598	-0.0091
626.933	-0.008
627.268	-0.0059
627.603	-0.0003
627.938	0.0036
628.272	0.0008
628.607	-0.0005
628.942	-0.0067
629.277	-0.0048
629.611	-0.0028
629.946	-0.0019
630.281	-0.0036
630.615	-0.0091
630.949	-0.0085
631.284	-0.0067
631.618	-0.0054
631.953	-0.0058
632.287	-0.008
632.621	-0.0068
632.955	-0.0082
633.289	-0.0082
633.623	-0.0106
633.957	-0.0058
634.291	-0.0052
634.625	-0.0065
634.959	-0.0081
635.293	-0.0044
635.627	-0.0016
635.96	-0.0005
636.294	-0.0049
636.627	-0.0078
636.961	-0.0094
637.294	-0.003
637.628	-0.0019
637.961	-0.0076
638.295	-0.0073
638.628	-0.0045
638.961	0.0009
639.294	-0.0042
639.628	-0.0073
639.961	-0.01
640.294	-0.0102
640.627	-0.0085
640.96	-0.0061
641.293	-0.0111
641.625	-0.007
641.958	-0.0053
642.291	-0.0039
642.624	-0.0069
642.956	-0.0112
643.289	-0.0077
643.621	-0.0087
643.954	-0.01
644.286	-0.0098
644.619	-0.0114
644.951	-0.0084
645.283	-0.0027
645.616	-0.0094
645.948	-0.0074
646.28	-0.0141
646.612	-0.0082
646.944	-0.0094
647.276	-0.0093
647.608	-0.007
647.94	-0.0074
648.272	-0.0029
648.603	0.0003
648.935	-0.0053
649.267	-0.0125
649.598	-0.0172
649.93	-0.0067
650.261	-0.0019
650.593	-0.0005
650.924	-0.0046
651.256	-0.0053
651.587	-0.0057
651.918	-0.0047
652.25	-0.0033
652.581	-0.005
652.912	-0.0067
653.243	-0.0108
653.574	-0.0061
653.905	-0.0073
654.236	-0.002
654.567	-0.0043
654.897	-0.0054
655.228	-0.0085
655.559	-0.0062
655.89	-0.0021
656.22	-0.0075
656.551	-0.009
656.881	-0.0048
657.212	0.0026
657.542	0.0048
657.872	0.0018
658.203	0.0026
658.533	0.0012
658.863	-0.0025
659.193	-0.0047
659.523	-0.0103
659.853	-0.0159
660.183	-0.0177
660.513	-0.0168
660.843	-0.0109
661.173	-0.0092
661.503	-0.0095
661.833	-0.0115
662.162	-0.0118
662.492	-0.009
662.822	-0.007
663.151	-0.0073
663.481	-0.007
663.81	-0.0062
664.139	-0.0068
664.469	-0.0067
664.798	-0.0032
665.127	-0.0009
665.456	0.0009
665.785	-0.0038
666.114	-0.0038
666.443	-0.0048
666.772	-0.0016
667.101	0.0026
667.43	0.001
667.759	-0.0021
668.088	-0.0105
668.416	-0.0124
668.745	-0.0103
669.074	-0.0065
669.402	-0.0023
669.731	-0.0033
670.059	-0.0048
670.388	-0.0075
670.716	-0.0074
671.044	-0.0012
671.372	0.0012
671.701	-0.0034
672.029	-0.014
672.357	-0.0127
672.685	-0.0075
673.013	-0.0043
673.341	-0.0069
673.669	-0.0081
673.996	-0.0031
674.324	-0.0012
674.652	-0.0022
674.98	-0.0046
675.307	-0.0065
675.635	-0.0079
675.962	-0.0097
676.29	-0.0112
676.617	-0.0084
676.945	-0.0125
677.272	-0.0125
677.599	-0.0131
677.926	-0.0079
678.253	-0.0103
678.581	-0.0098
678.908	-0.0105
679.235	-0.0053
679.561	-0.0051
679.888	-0.0063
680.215	-0.0034
680.542	-0.0029
680.869	0.0002
681.195	-0.0045
681.522	-0.0046
681.849	-0.0027
682.175	-0.0042
682.502	-0.0106
682.828	-0.0124
683.154	-0.0126
683.481	-0.0079
683.807	-0.0122
684.133	-0.0139
684.459	-0.0099
684.785	-0.0087
685.111	-0.0065
685.437	-0.0094
685.763	-0.0114
686.089	-0.0114
686.415	-0.0125
686.741	-0.0089
687.067	-0.0036
687.392	-0.0038
687.718	-0.0034
688.043	-0.0069
688.369	-0.0068
688.694	-0.006
689.02	-0.0034
689.345	-0.0069
689.67	-0.0102
689.996	-0.0143
690.321	-0.0107
690.646	-0.0084
690.971	-0.0086
691.296	-0.0072
691.621	-0.0031
691.946	-0.0018
692.271	-0.0034
692.596	-0.0097
692.921	-0.0117
693.245	-0.0121
693.57	-0.0123
693.895	-0.0114
694.219	-0.0123
694.544	-0.0121
694.868	-0.0107
695.193	-0.0125
695.517	-0.0093
695.841	-0.0086
696.166	-0.0081
696.49	-0.0102
696.814	-0.0115
697.138	-0.0105
697.462	-0.0087
697.786	-0.0064
698.11	-0.0021
698.434	-0.0029
698.758	-0.0091
699.081	-0.0113
699.405	-0.0117
699.729	-0.0055
700.052	-0.0045
700.376	-0.0026
700.7	0.0026
701.023	0
701.346	-0.0013
701.67	-0.0082
701.993	-0.0052
702.316	-0.0071
702.639	-0.0064
702.963	-0.0036
703.286	-0.0001
703.609	0.0015
703.932	-0.0103
704.255	-0.0108
704.578	-0.0157
704.9	-0.0095
705.223	-0.0126
705.546	-0.0086
705.868	-0.0072
706.191	-0.0035
706.514	-0.0062
706.836	-0.0079
707.159	-0.0104
707.481	-0.0085
707.803	-0.0056
708.126	-0.011
708.448	-0.0129
708.77	-0.0143
709.092	-0.0099
709.414	-0.006
709.736	-0.0076
710.058	-0.0056
710.38	-0.0082
710.702	-0.007
711.024	-0.0057
711.345	-0.0008
711.667	-0.0014
711.989	-0.0045
712.31	-0.0107
712.632	-0.0119
712.953	-0.0115
713.275	-0.0044
713.596	-0.0051
713.917	-0.0053
714.239	-0.0087
714.56	-0.0013
714.881	-0.0015
715.202	-0.0006
715.523	-0.0074
715.844	-0.0078
716.165	-0.0098
716.486	-0.0092
716.807	-0.0066
717.128	-0.0067
717.448	-0.0091
717.769	-0.0103
718.09	-0.0101
718.41	-0.004
718.731	0.0004
719.051	-0.0016
719.372	-0.0064
719.692	-0.0149
720.012	-0.0145
720.332	-0.0133
720.653	-0.014
720.973	-0.0117
721.293	-0.0064
721.613	-0.0036
721.933	-0.0029
722.253	-0.0057
722.573	-0.0043
722.892	-0.0061
723.212	-0.0098
723.532	-0.0087
723.851	-0.0069
724.171	-0.006
724.491	-0.009
724.81	-0.0108
725.129	-0.0157
725.449	-0.0156
725.768	-0.0122
726.087	-0.0067
726.407	-0.0093
726.726	-0.0153
727.045	-0.0104
727.364	-0.0046
727.683	-0.001
728.002	-0.0049
728.321	-0.01
728.64	-0.012
728.958	-0.0188
729.277	-0.0136
729.596	-0.0115
729.914	-0.0025
730.233	-0.0006
730.551	-0.0017
730.87	-0.0049
731.188	-0.0067
731.507	-0.002
731.825	0.0023
732.143	0.0031
732.461	-0.0001
732.779	-0.0042
733.097	-0.0065
733.415	-0.0046
733.733	-0.0061
734.051	-0.0055
734.369	-0.0071
734.687	-0.0048
735.005	-0.0058
735.322	-0.0136
735.64	-0.0175
735.957	-0.0201
736.275	-0.0183
736.592	-0.0167
736.91	-0.0131
737.227	-0.0093
737.544	-0.011
737.862	-0.0147
738.179	-0.0128
738.496	-0.0088
738.813	-0.0076
739.13	-0.008
739.447	-0.0101
739.764	-0.0116
740.081	-0.0156
740.398	-0.0173
740.714	-0.0143
741.031	-0.0126
741.348	-0.0131
741.664	-0.0082
741.981	-0.0104
742.297	-0.0066
742.614	-0.0129
742.93	-0.0091
743.246	-0.0132
743.563	-0.0153
743.879	-0.0188
744.195	-0.021
744.511	-0.0169
744.827	-0.0133
745.143	-0.0106
745.459	-0.0074
745.775	-0.0119
746.091	-0.012
746.406	-0.0165
746.722	-0.0128
747.038	-0.014
747.353	-0.0118
747.669	-0.0104
747.984	-0.004
748.3	-0.0051
748.615	-0.0089
748.93	-0.0131
749.246	-0.0101
749.561	-0.008
749.876	-0.0071
750.191	-0.0106
750.506	-0.0105
750.821	-0.0106
751.136	-0.0101
751.451	-0.0084
751.766	-0.0119
752.08	-0.0118
752.395	-0.0151
752.71	-0.0122
753.024	-0.0145
753.339	-0.014
753.653	-0.0131
753.968	-0.0104
754.282	-0.006
754.596	-0.0047
754.911	-0.01
755.225	-0.0129
755.539	-0.0096
755.853	-0.0011
756.167	-0.004
756.481	-0.0064
756.795	-0.0124
757.109	-0.0118
757.423	-0.0169
757.736	-0.0138
758.05	-0.0142
758.364	-0.0118
758.677	-0.0109
758.991	-0.0109
759.304	-0.0094
759.618	-0.0099
759.931	-0.0068
760.244	-0.0045
760.558	-0.0013
760.871	-0.0016
761.184	-0.0062
761.497	-0.0105
761.81	-0.0101
762.123	-0.01
762.436	-0.0155
762.749	-0.0177
763.062	-0.014
763.374	-0.0088
763.687	-0.0075
764	-0.0105
764.312	-0.0089
764.625	-0.0105
764.937	-0.0096
765.25	-0.0108
765.562	-0.0113
765.874	-0.0156
766.186	-0.0144
766.499	-0.0147
766.811	-0.0089
767.123	-0.01
767.435	-0.0088
767.747	-0.0072
768.059	-0.0081
768.37	-0.008
768.682	-0.012
768.994	-0.0116
769.306	-0.0123
769.617	-0.0082
769.929	-0.0113
770.24	-0.0053
770.552	-0.0064
770.863	-0.0018
771.174	-0.0042
771.486	-0.0036
771.797	-0.0072
772.108	-0.0139
772.419	-0.02
772.73	-0.0166
773.041	-0.013
773.352	-0.0074
773.663	-0.0046
773.974	-0.0017
774.285	-0.0066
774.595	-0.0093
774.906	-0.0139
775.217	-0.0086
775.527	-0.0106
775.838	-0.007
776.148	-0.0054
776.458	-0.0012
776.769	-0.0038
777.079	-0.0092
777.389	-0.0114
777.699	-0.0063
778.009	-0.0027
778.319	-0.0022
778.629	-0.0074
778.939	-0.0156
779.249	-0.0118
779.559	-0.0086
779.869	-0.0016
780.178	-0.005
780.488	-0.0051
780.798	-0.0082
781.107	-0.0119
781.417	-0.0125
781.726	-0.0108
782.035	-0.0099
782.345	-0.0103
782.654	-0.0142
782.963	-0.013
783.272	-0.0086
783.581	-0.0052
783.89	-0.0067
784.199	-0.0103
784.508	-0.0129
784.817	-0.0112
785.126	-0.0147
785.434	-0.0157
785.743	-0.0146
786.052	-0.0099
786.36	-0.006
786.669	-0.0089
786.977	-0.0095
787.285	-0.0016
787.594	0.0012
787.902	-0
788.21	-0.0128
788.518	-0.0163
788.826	-0.0139
789.135	-0.0137
789.442	-0.0159
789.75	-0.0231
790.058	-0.017
790.366	-0.0173
790.674	-0.014
790.981	-0.0127
791.289	-0.0114
791.597	-0.0125
791.904	-0.01
792.212	-0.0091
792.519	-0.0055
792.826	-0.0073
793.134	-0.0102
793.441	-0.013
793.748	-0.0142
794.055	-0.0093
794.362	-0.0055
794.669	-0.0092
794.976	-0.0042
795.283	-0.0103
795.59	-0.0041
795.897	-0.0078
796.203	-0.0069
796.51	-0.0106
796.817	-0.016
797.123	-0.0118
797.43	-0.0114
797.736	-0.0075
798.042	-0.0081
798.349	-0.0071
798.655	-0.0069
798.961	-0.007
799.267	-0.0133
799.573	-0.0149
799.879	-0.0182
800.185	-0.0151
800.491	-0.0064
800.797	0.0026
801.103	0.0083
801.408	-0.0022
801.714	-0.0115
802.02	-0.0207
802.325	-0.0145
802.631	-0.0109
802.936	-0.0026
803.242	-0.003
803.547	-0.0069
803.852	-0.0055
804.157	-0.0053
804.462	-0.0092
804.768	-0.0088
805.073	-0.0181
805.378	-0.0108
805.682	-0.0159
805.987	-0.0112
806.292	-0.0066
806.597	-0.0045
806.902	-0.0006
807.206	-0.0094
807.511	-0.005
807.815	-0.0129
808.12	-0.0084
808.424	-0.0139
808.728	-0.0067
809.033	-0.0075
809.337	-0.0041
809.641	-0.0024
809.945	-0.0063
810.249	-0.0119
810.553	-0.0133
810.857	-0.0099
811.161	-0.0103
811.465	-0.0075
811.768	-0.0056
812.072	0.0013
812.376	0.0002
812.679	0.0004
812.983	-0.0049
813.286	-0.0081
813.59	-0.0109
813.893	-0.0114
814.196	-0.0132
814.499	-0.0181
814.803	-0.0211
815.106	-0.0194
815.409	-0.0175
815.712	-0.0066
816.015	-0.0116
816.318	-0.0109
816.62	-0.0208
816.923	-0.0186
817.226	-0.0133
817.528	-0.0128
817.831	-0.012
818.133	-0.0166
818.436	-0.0042
818.738	-0.0001
819.041	-0.003
819.343	-0.0103
819.645	-0.0125
819.947	-0.007
820.249	-0.0114
820.551	-0.0084
820.853	-0.0122
821.155	-0.0106
821.457	-0.0127
821.759	-0.0167
822.061	-0.015
822.362	-0.018
822.664	-0.0047
822.966	-0.0043
823.267	-0.0043
823.569	-0.0117
823.87	-0.0127
824.171	-0.0161
824.473	-0.0079
824.774	-0.008
825.075	-0.0061
825.376	-0.0129
825.677	-0.014
825.978	-0.0158
826.279	-0.0148
826.58	-0.006
826.881	-0.0042
827.181	-0.0017
827.482	-0.004
827.783	-0.0058
828.083	-0.0038
828.384	-0.008
828.684	-0.0072
828.985	-0.0123
829.285	-0.0069
829.585	-0.0018
829.885	-0.0028
830.185	0.0009
830.486	-0.0016
830.786	-0.0032
831.086	-0.0174
831.385	-0.0126
831.685	-0.0112
831.985	-0.0109
832.285	-0.0159
832.585	-0.0157
832.884	-0.0179
833.184	-0.0242
833.483	-0.0219
833.783	-0.0069
834.082	0.0029
834.381	0.0002
834.681	-0.0091
834.98	-0.0067
835.279	-0.0068
835.578	-0.0022
835.877	-0.0171
836.176	-0.0231
836.475	-0.0229
836.774	-0.0155
837.072	0.0014
837.371	-0.0087
837.67	-0.0082
837.968	-0.0214
838.267	-0.0097
838.565	-0.0041
838.864	0.0038
839.162	-0.0069
839.46	-0.0116
839.759	-0.0074
840.057	-0.0005
840.355	0.0041
840.653	-0.0013
840.951	0.0028
841.249	0.0056
841.547	-0.013
841.845	-0.0285
842.142	-0.0339
842.44	-0.0255
842.738	-0.0287
843.035	-0.0315
843.333	-0.0205
843.63	-0.0136
843.928	-0.0128
844.225	-0.0233
844.522	-0.0114
844.82	-0.0059
845.117	0.0134
845.414	-0.003
845.711	-0
846.008	0.0035
846.305	0.0126
846.602	-0.0023
846.898	-0.0164
847.195	-0.0199
847.492	-0.0187
847.788	-0.0157
848.085	-0.008
848.382	0.0095
848.678	-0.0107
848.974	-0.0093
849.271	-0.018
849.567	-0.0112
849.863	-0.0079
850.159	-0.0138
850.455	-0.0145
850.751	-0.025
851.047	-0.0271
851.343	-0.0212
851.639	-0.0275
851.935	-0.0398
852.23	-0.0342
852.526	-0.0204
852.822	0.0136
853.117	0.0201
853.413	0.0193
853.708	0.0099
854.003	0.0119
854.299	0.012
854.594	-0.0031
854.889	-0.0092
855.184	-0.0189
855.479	-0.0228
855.774	-0.0319
856.069	-0.0413
856.364	-0.0437
856.659	-0.0292
856.954	-0.0116
857.248	-0.0009
857.543	-0.0061
857.837	-0.0124
858.132	0.0029
858.426	0.0059
858.721	-0.0059
859.015	-0.0198
859.309	-0.0225
859.604	-0.0167
859.898	-0.0057
860.192	-0.021
860.486	-0.0107
860.78	0.001
861.074	0.017
861.367	-0.0041
861.661	-0.0237
861.955	-0.0254
862.248	-0.0122
862.542	-0.0064
862.836	-0.0055
863.129	0.0002
863.422	-0.0166
863.716	-0.0142
864.009	-0.0076
864.302	-0.0026
864.595	0.0156
864.889	0.014
865.182	0.0131
865.475	-0.0099
865.767	-0.0259
866.06	-0.0311
866.353	-0.0323
866.646	-0.0209
866.938	-0.0043
867.231	0.0005
867.524	0.0155
867.816	-0.0084
868.109	-0.0154
868.401	-0.0352
868.693	-0.0148
868.985	-0.0056
869.278	0.011
869.57	-0.0066
869.862	-0.0111
870.154	-0.0088
870.446	0.0024
870.738	0.0108
871.029	0.0217
871.321	0.0371
871.613	0.0299
871.904	0.0122
872.196	0.0022
872.487	0.0006
872.779	0.006
873.07	-0.0066
873.362	-0.012
873.653	-0.0231
873.944	0.0015
874.235	0.0123
874.526	0.0417
874.817	0.0229
875.108	0.0136
875.399	-0.0076
875.69	-0.0089
875.981	-0.0223
876.271	-0.0057
876.562	-0.0174
876.853	0.0151
877.143	-0.0044
877.434	-0.0101
877.724	-0.0529
878.014	-0.0436
878.305	-0.0263
878.595	-0.0311
878.885	-0.051
879.175	-0.0641
879.465	-0.0249
879.755	-0.0189
880.045	-0.013
880.335	-0.0407
880.624	-0.0561
880.914	-0.0561
