Data from StonyCreek_071017_2_1b_Absorbance_22-34-20-716.txt Node
Date: Tue Jul 18 22:34:20 MDT 2017
User: Tank Lab
Spectrometer: FLMS01220
Trigger mode: 0
Integration Time (sec): 1.000000E-1
Scans to average: 10
Electric dark correction enabled: true
Nonlinearity correction enabled: false
Boxcar width: 1
XAxis mode: Wavelengths
Number of Pixels in Spectrum: 2048
>>>>>Begin Spectral Data<<<<<
179.47	0.5413
179.856	0.5413
180.241	0.7179
180.626	-0
181.011	-0
181.396	-0
181.781	-0
182.166	-0
182.551	-0.213
182.936	-0.2587
183.321	-0.6082
183.706	-0.0636
184.091	-0.1733
184.476	-0.0904
184.86	-0.5643
185.245	-0
185.63	-0
186.015	-0.3412
186.399	-0.7423
186.784	0.5151
187.169	0.023
187.553	0.0478
187.938	0.2956
188.322	0.2416
188.707	0.206
189.091	0.1577
189.475	0.1758
189.86	0.1617
190.244	0.1834
190.629	0.167
191.013	0.2059
191.397	0.2427
191.781	0.3116
192.165	0.363
192.55	0.4092
192.934	0.4383
193.318	0.4595
193.702	0.4919
194.086	0.5209
194.47	0.5596
194.854	0.5814
195.238	0.5782
195.622	0.5646
196.006	0.5574
196.389	0.5543
196.773	0.5569
197.157	0.5491
197.541	0.5445
197.924	0.5386
198.308	0.5166
198.692	0.5099
199.075	0.4915
199.459	0.4941
199.843	0.4839
200.226	0.4704
200.61	0.4542
200.993	0.4436
201.376	0.4358
201.76	0.433
202.143	0.4261
202.527	0.4234
202.91	0.4158
203.293	0.4074
203.676	0.398
204.059	0.3848
204.443	0.3797
204.826	0.3785
205.209	0.3745
205.592	0.3714
205.975	0.3644
206.358	0.3636
206.741	0.3597
207.124	0.3544
207.507	0.3512
207.89	0.3462
208.273	0.3466
208.655	0.3431
209.038	0.3417
209.421	0.3395
209.804	0.3382
210.186	0.3338
210.569	0.3306
210.951	0.3276
211.334	0.3242
211.717	0.3194
212.099	0.3183
212.482	0.3164
212.864	0.3151
213.246	0.3092
213.629	0.3088
214.011	0.3074
214.393	0.3081
214.776	0.3072
215.158	0.3056
215.54	0.3004
215.922	0.2968
216.305	0.2956
216.687	0.2963
217.069	0.2943
217.451	0.2901
217.833	0.2882
218.215	0.2852
218.597	0.2818
218.979	0.2791
219.361	0.2799
219.742	0.2762
220.124	0.2758
220.506	0.2707
220.888	0.269
221.27	0.2643
221.651	0.2614
222.033	0.2607
222.415	0.2593
222.796	0.2588
223.178	0.2542
223.559	0.2514
223.941	0.2465
224.322	0.2463
224.704	0.2459
225.085	0.2456
225.466	0.2444
225.848	0.2429
226.229	0.24
226.61	0.2375
226.992	0.2351
227.373	0.2336
227.754	0.2327
228.135	0.2314
228.516	0.23
228.897	0.225
229.278	0.2217
229.659	0.219
230.04	0.2196
230.421	0.2152
230.802	0.2142
231.183	0.2114
231.564	0.2125
231.944	0.2108
232.325	0.21
232.706	0.2073
233.087	0.2053
233.467	0.2048
233.848	0.204
234.229	0.2034
234.609	0.2015
234.99	0.1997
235.37	0.1985
235.751	0.1983
236.131	0.1971
236.511	0.1949
236.892	0.1925
237.272	0.1908
237.652	0.1883
238.033	0.1848
238.413	0.1847
238.793	0.1835
239.173	0.184
239.553	0.1833
239.933	0.1841
240.313	0.183
240.694	0.1807
241.074	0.1785
241.453	0.1776
241.833	0.1766
242.213	0.1772
242.593	0.1768
242.973	0.1774
243.353	0.1761
243.732	0.1742
244.112	0.1719
244.492	0.1688
244.872	0.1683
245.251	0.1682
245.631	0.1702
246.01	0.1693
246.39	0.1672
246.769	0.1651
247.149	0.1646
247.528	0.1658
247.908	0.1658
248.287	0.1653
248.666	0.1643
249.045	0.1626
249.425	0.1621
249.804	0.1591
250.183	0.1604
250.562	0.1589
250.941	0.1591
251.32	0.1561
251.699	0.1562
252.078	0.1552
252.457	0.155
252.836	0.1534
253.215	0.154
253.594	0.1554
253.973	0.1546
254.352	0.1534
254.731	0.1525
255.109	0.1525
255.488	0.1521
255.867	0.1511
256.245	0.1514
256.624	0.1499
257.002	0.1492
257.381	0.1468
257.759	0.1484
258.138	0.1473
258.516	0.1486
258.895	0.1482
259.273	0.149
259.651	0.1483
260.03	0.1476
260.408	0.1449
260.786	0.1439
261.164	0.1424
261.542	0.1429
261.921	0.1424
262.299	0.1413
262.677	0.1412
263.055	0.1408
263.433	0.1408
263.811	0.1407
264.188	0.1389
264.566	0.1383
264.944	0.1373
265.322	0.1373
265.7	0.136
266.077	0.1362
266.455	0.1344
266.833	0.1351
267.21	0.1337
267.588	0.1342
267.966	0.1324
268.343	0.1308
268.721	0.1314
269.098	0.1321
269.475	0.1325
269.853	0.1312
270.23	0.1286
270.607	0.1275
270.985	0.1268
271.362	0.1264
271.739	0.1268
272.116	0.1256
272.494	0.1271
272.871	0.1258
273.248	0.1257
273.625	0.1249
274.002	0.1225
274.379	0.1222
274.756	0.1216
275.132	0.1212
275.509	0.1207
275.886	0.1185
276.263	0.1197
276.64	0.1186
277.016	0.1185
277.393	0.1169
277.77	0.1164
278.146	0.1159
278.523	0.1159
278.899	0.1151
279.276	0.115
279.652	0.1139
280.029	0.1133
280.405	0.1134
280.782	0.1133
281.158	0.1117
281.534	0.1109
281.91	0.11
282.287	0.1106
282.663	0.1097
283.039	0.1115
283.415	0.1106
283.791	0.1094
284.167	0.1061
284.543	0.1058
284.919	0.1058
285.295	0.105
285.671	0.1037
286.047	0.1027
286.423	0.1025
286.799	0.1019
287.174	0.1015
287.55	0.0999
287.926	0.1012
288.301	0.0996
288.677	0.1005
289.053	0.0994
289.428	0.1001
289.804	0.0987
290.179	0.0975
290.555	0.0961
290.93	0.0974
291.305	0.0958
291.681	0.0955
292.056	0.0929
292.431	0.0927
292.806	0.0936
293.182	0.095
293.557	0.0959
293.932	0.0947
294.307	0.0914
294.682	0.0897
295.057	0.0882
295.432	0.0894
295.807	0.0896
296.182	0.0905
296.557	0.0894
296.932	0.089
297.306	0.0869
297.681	0.0865
298.056	0.0873
298.43	0.0896
298.805	0.0888
299.18	0.0857
299.554	0.085
299.929	0.0857
300.303	0.0877
300.678	0.0874
301.052	0.0871
301.427	0.0867
301.801	0.0853
302.175	0.0838
302.55	0.0824
302.924	0.0819
303.298	0.0817
303.672	0.0811
304.046	0.0804
304.421	0.0798
304.795	0.0808
305.169	0.0802
305.543	0.0793
305.917	0.0757
306.291	0.0747
306.664	0.0751
307.038	0.0756
307.412	0.0763
307.786	0.0761
308.16	0.0768
308.533	0.0758
308.907	0.0765
309.281	0.0763
309.654	0.0764
310.028	0.0754
310.401	0.0738
310.775	0.0725
311.148	0.0718
311.522	0.0717
311.895	0.0722
312.268	0.0718
312.642	0.0728
313.015	0.0718
313.388	0.0697
313.761	0.0691
314.135	0.0669
314.508	0.0679
314.881	0.0667
315.254	0.0688
315.627	0.0688
316	0.0698
316.373	0.0691
316.746	0.0671
317.118	0.0646
317.491	0.0651
317.864	0.0662
318.237	0.0661
318.61	0.0648
318.982	0.064
319.355	0.0641
319.727	0.0633
320.1	0.0628
320.473	0.0646
320.845	0.0646
321.218	0.0647
321.59	0.064
321.962	0.0628
322.335	0.0616
322.707	0.058
323.079	0.0597
323.452	0.0599
323.824	0.0614
324.196	0.06
324.568	0.0608
324.94	0.0603
325.312	0.0619
325.684	0.0604
326.056	0.0591
326.428	0.0564
326.8	0.0551
327.172	0.0543
327.544	0.0551
327.915	0.056
328.287	0.0562
328.659	0.0556
329.031	0.0543
329.402	0.0546
329.774	0.0531
330.145	0.0536
330.517	0.0532
330.888	0.053
331.26	0.0514
331.631	0.0507
332.003	0.0519
332.374	0.0518
332.745	0.0519
333.117	0.051
333.488	0.0522
333.859	0.0501
334.23	0.0481
334.601	0.0458
334.972	0.0458
335.343	0.0481
335.714	0.049
336.085	0.0493
336.456	0.0473
336.827	0.046
337.198	0.0456
337.569	0.0461
337.94	0.047
338.31	0.0462
338.681	0.0444
339.052	0.0417
339.422	0.0421
339.793	0.0449
340.164	0.0469
340.534	0.0457
340.905	0.044
341.275	0.0443
341.645	0.0457
342.016	0.0438
342.386	0.0424
342.756	0.0395
343.127	0.0398
343.497	0.04
343.867	0.0414
344.237	0.0402
344.607	0.0389
344.977	0.0373
345.347	0.0385
345.717	0.0373
346.087	0.038
346.457	0.0375
346.827	0.0371
347.197	0.0378
347.567	0.0362
347.936	0.0377
348.306	0.0378
348.676	0.0402
349.046	0.0412
349.415	0.0404
349.785	0.0392
350.154	0.0393
350.524	0.0405
350.893	0.0389
351.263	0.0375
351.632	0.0354
352.001	0.0372
352.371	0.0371
352.74	0.0373
353.109	0.036
353.478	0.0362
353.847	0.0344
354.217	0.0346
354.586	0.0336
354.955	0.036
355.324	0.0343
355.693	0.0338
356.062	0.0325
356.43	0.0337
356.799	0.0348
357.168	0.0337
357.537	0.0343
357.906	0.0321
358.274	0.032
358.643	0.0296
359.011	0.0309
359.38	0.0317
359.749	0.0318
360.117	0.0309
360.486	0.0303
360.854	0.0314
361.222	0.0307
361.591	0.0308
361.959	0.0292
362.327	0.03
362.695	0.0289
363.064	0.0307
363.432	0.0281
363.8	0.0287
364.168	0.0286
364.536	0.03
364.904	0.0292
365.272	0.027
365.64	0.0263
366.008	0.0271
366.376	0.0285
366.743	0.0299
367.111	0.0305
367.479	0.0291
367.847	0.0267
368.214	0.026
368.582	0.0272
368.949	0.0281
369.317	0.0268
369.684	0.0264
370.052	0.0285
370.419	0.0299
370.787	0.0284
371.154	0.0259
371.521	0.0246
371.889	0.0245
372.256	0.0233
372.623	0.0225
372.99	0.0205
373.357	0.0212
373.724	0.0215
374.091	0.0227
374.458	0.0219
374.825	0.0209
375.192	0.0223
375.559	0.0226
375.926	0.0235
376.293	0.0232
376.659	0.0234
377.026	0.024
377.393	0.023
377.759	0.0216
378.126	0.0232
378.492	0.0244
378.859	0.0248
379.225	0.0217
379.592	0.0197
379.958	0.0196
380.325	0.0201
380.691	0.0192
381.057	0.0214
381.423	0.0195
381.79	0.0221
382.156	0.0207
382.522	0.0213
382.888	0.0188
383.254	0.0177
383.62	0.0188
383.986	0.0194
384.352	0.0203
384.718	0.0206
385.084	0.0233
385.449	0.0233
385.815	0.0214
386.181	0.0214
386.547	0.0219
386.912	0.0217
387.278	0.017
387.643	0.0175
388.009	0.0176
388.374	0.0189
388.74	0.018
389.105	0.0201
389.471	0.0199
389.836	0.02
390.201	0.0202
390.566	0.0215
390.932	0.0219
391.297	0.0204
391.662	0.0195
392.027	0.0175
392.392	0.0156
392.757	0.015
393.122	0.0151
393.487	0.0166
393.852	0.0173
394.217	0.0184
394.582	0.0207
394.946	0.0228
395.311	0.0235
395.676	0.0225
396.04	0.0169
396.405	0.0146
396.77	0.0129
397.134	0.0158
397.499	0.016
397.863	0.0149
398.227	0.014
398.592	0.0148
398.956	0.015
399.32	0.0194
399.685	0.0189
400.049	0.0222
400.413	0.0204
400.777	0.0195
401.141	0.0209
401.505	0.0204
401.869	0.0205
402.233	0.0149
402.597	0.013
402.961	0.0119
403.325	0.0141
403.689	0.0146
404.053	0.0153
404.416	0.0128
404.78	0.0127
405.144	0.0139
405.507	0.0164
405.871	0.0157
406.234	0.0154
406.598	0.0131
406.961	0.0129
407.325	0.0132
407.688	0.0143
408.051	0.0163
408.415	0.0161
408.778	0.0159
409.141	0.0136
409.504	0.0146
409.867	0.013
410.23	0.0132
410.593	0.0092
410.956	0.0119
411.319	0.0127
411.682	0.014
412.045	0.0133
412.408	0.012
412.771	0.0133
413.134	0.0115
413.496	0.0128
413.859	0.0117
414.222	0.0112
414.584	0.0106
414.947	0.0119
415.309	0.0141
415.672	0.0145
416.034	0.0143
416.396	0.013
416.759	0.0137
417.121	0.0132
417.483	0.0133
417.846	0.0126
418.208	0.0135
418.57	0.0133
418.932	0.0134
419.294	0.0124
419.656	0.0118
420.018	0.0134
420.38	0.012
420.742	0.0129
421.104	0.0111
421.466	0.0096
421.827	0.0105
422.189	0.0102
422.551	0.0132
422.912	0.0121
423.274	0.0121
423.636	0.012
423.997	0.0128
424.359	0.0126
424.72	0.0141
425.081	0.0101
425.443	0.0066
425.804	0.0039
426.165	0.0063
426.527	0.006
426.888	0.007
427.249	0.0078
427.61	0.0135
427.971	0.0104
428.332	0.0105
428.693	0.007
429.054	0.0109
429.415	0.0118
429.776	0.0117
430.137	0.0097
430.498	0.0073
430.858	0.0103
431.219	0.0139
431.58	0.0145
431.94	0.0157
432.301	0.0151
432.661	0.0135
433.022	0.0102
433.382	0.0085
433.743	0.0074
434.103	0.007
434.463	0.0033
434.824	0.0057
435.184	0.0073
435.544	0.0084
435.904	0.0081
436.264	0.0068
436.624	0.0087
436.985	0.0087
437.345	0.0089
437.704	0.0096
438.064	0.0113
438.424	0.0083
438.784	0.0076
439.144	0.0098
439.504	0.0099
439.863	0.0061
440.223	0.0007
440.583	0.0038
440.942	0.0057
441.302	0.0072
441.661	0.0073
442.021	0.0089
442.38	0.009
442.739	0.0076
443.099	0.0064
443.458	0.0068
443.817	0.0093
444.176	0.0118
444.536	0.0107
444.895	0.0114
445.254	0.0084
445.613	0.0086
445.972	0.0055
446.331	0.0071
446.69	0.0055
447.049	0.0072
447.407	0.0051
447.766	0.0078
448.125	0.0081
448.484	0.0105
448.842	0.0137
449.201	0.013
449.559	0.0109
449.918	0.0066
450.276	0.0077
450.635	0.0089
450.993	0.0073
451.352	0.0048
451.71	0.002
452.068	0.0036
452.426	0.004
452.785	0.0051
453.143	0.0068
453.501	0.0076
453.859	0.0085
454.217	0.0071
454.575	0.0069
454.933	0.0082
455.291	0.008
455.649	0.0065
456.006	0.0042
456.364	0.0075
456.722	0.0057
457.079	0.009
457.437	0.0067
457.795	0.0102
458.152	0.0087
458.51	0.0083
458.867	0.0057
459.225	0.007
459.582	0.0085
459.939	0.0078
460.297	0.0047
460.654	0.0022
461.011	0.004
461.368	0.0053
461.725	0.0053
462.082	0.0058
462.44	0.0083
462.797	0.0076
463.153	0.0083
463.51	0.009
463.867	0.0124
464.224	0.0086
464.581	0.0029
464.938	0.0016
465.294	0.0061
465.651	0.008
466.008	0.0074
466.364	0.0045
466.721	0.0057
467.077	0.0058
467.434	0.0085
467.79	0.0093
468.146	0.0108
468.503	0.0148
468.859	0.0113
469.215	0.0059
469.571	0.0002
469.927	0.0032
470.284	0.0056
470.64	0.0094
470.996	0.0099
471.352	0.0116
471.707	0.0073
472.063	0.0053
472.419	0.0037
472.775	0.0031
473.131	0.004
473.486	0.0052
473.842	0.0056
474.198	0.0073
474.553	0.0079
474.909	0.0106
475.264	0.0104
475.62	0.0107
475.975	0.0097
476.331	0.0086
476.686	0.0075
477.041	0.0082
477.396	0.0093
477.752	0.0094
478.107	0.0092
478.462	0.0067
478.817	0.0064
479.172	0.0095
479.527	0.0111
479.882	0.0109
480.237	0.0073
480.591	0.0073
480.946	0.0065
481.301	0.006
481.656	0.0013
482.01	0.0023
482.365	-0.0001
482.72	0.0058
483.074	0.0082
483.429	0.0102
483.783	0.0055
484.137	0.0073
484.492	0.0082
484.846	0.0115
485.2	0.0039
485.555	0.0012
485.909	-0
486.263	0.0035
486.617	0.0042
486.971	0.006
487.325	0.0095
487.679	0.0127
488.033	0.0081
488.387	0.0134
488.741	0.0122
489.094	0.0067
489.448	-0.0022
489.802	0.0022
490.156	0.0092
490.509	0.0046
490.863	-0.0031
491.216	-0.0005
491.57	0.0041
491.923	0.0046
492.277	0.0014
492.63	0.0008
492.983	0.0013
493.337	0.0006
493.69	0.0024
494.043	0.0047
494.396	0.0054
494.749	0.0027
495.102	0.0007
495.455	0.0017
495.808	0.0017
496.161	0.0039
496.514	0.0041
496.867	0.0069
497.22	0.0051
497.572	0.0028
497.925	0.0024
498.278	-0.0006
498.63	0.0067
498.983	0.0082
499.335	0.0103
499.688	0.0006
500.04	-0.0037
500.393	-0.0053
500.745	-0.0018
501.097	0.0017
501.449	0.0009
501.802	0.0012
502.154	0.0003
502.506	0.0003
502.858	0.001
503.21	-0.0011
503.562	0.0028
503.914	0.0077
504.266	0.0108
504.618	0.0068
504.969	0.0054
505.321	0.0008
505.673	0.0027
506.025	0.0008
506.376	0.0046
506.728	0.0033
507.079	0.002
507.431	0.0003
507.782	0.002
508.134	0.0035
508.485	0.0034
508.836	0.0009
509.188	0.0009
509.539	0.0021
509.89	0.0019
510.241	-0.0022
510.592	0.0019
510.943	0.0009
511.294	0.0035
511.645	-0.0037
511.996	-0.0003
512.347	0.0011
512.698	0.005
513.049	0.0058
513.399	0.0059
513.75	0.0044
514.101	0.0042
514.451	0.0037
514.802	0.0031
515.152	0.0013
515.503	0.0028
515.853	0.0028
516.203	0.0014
516.554	-0.0015
516.904	0.0004
517.254	0.0009
517.604	0.0012
517.955	-0.0002
518.305	0.0033
518.655	0.0046
519.005	0.0057
519.355	0.0083
519.705	0.0041
520.055	0.0045
520.404	0.0032
520.754	0.0079
521.104	0.0089
521.454	0.0078
521.803	0.0081
522.153	0.0054
522.502	-0.0001
522.852	-0.0034
523.201	-0.0027
523.551	0.0004
523.9	0.0035
524.249	0.0046
524.599	0.0055
524.948	0.0025
525.297	0.0047
525.646	0.0023
525.995	0.0033
526.344	0.0003
526.694	0.0034
527.042	0.0026
527.391	0.0003
527.74	-0.0006
528.089	-0.0007
528.438	0.0037
528.787	0.0033
529.135	0.0045
529.484	0.0068
529.833	0.0072
530.181	0.0051
530.53	-0.0013
530.878	-0.002
531.227	0.0016
531.575	0.0072
531.923	0.0036
532.271	0.0032
532.62	0.0019
532.968	0.004
533.316	0.0008
533.664	0.0018
534.012	0.004
534.36	0.0077
534.708	0.0024
535.056	0.0004
535.404	-0.0068
535.752	-0.0028
536.1	-0.0011
536.447	0.0033
536.795	0.002
537.143	0.0037
537.49	0.0015
537.838	0
538.185	-0.0032
538.533	-0.0008
538.88	-0.0001
539.228	0.0006
539.575	0.0005
539.922	0.0005
540.269	0.0062
540.617	0.0061
540.964	0.0044
541.311	0.0016
541.658	0.001
542.005	0.0024
542.352	0.0002
542.699	-0.0005
543.045	-0.0032
543.392	-0.0014
543.739	-0.001
544.086	0.0028
544.432	0.0003
544.779	0.0044
545.126	0.0016
545.472	0.0003
545.819	-0.0033
546.165	-0.0025
546.512	-0
546.858	0.0043
547.204	0.0062
547.55	0.0052
547.897	0.0015
548.243	-0.0046
548.589	-0.0005
548.935	-0.0016
549.281	0.0004
549.627	-0.0031
549.973	0.0006
550.319	0.0033
550.665	0.004
551.01	-0.0008
551.356	-0.0058
551.702	-0.0092
552.048	-0.014
552.393	-0.0091
552.739	-0.0046
553.084	0.004
553.43	0.0011
553.775	-0.0025
554.12	-0.0055
554.466	0.0001
554.811	0.0023
555.156	0.003
555.502	0.0026
555.847	-0
556.192	-0.0014
556.537	-0.004
556.882	-0.0011
557.227	-0.0048
557.572	0.0002
557.917	0.0075
558.261	0.0074
558.606	0.0004
558.951	-0.0081
559.295	-0.0094
559.64	-0.0033
559.985	-0.0027
560.329	0.0003
560.674	-0.0033
561.018	-0.007
561.363	-0.0067
561.707	-0.0062
562.051	-0.0015
562.395	0.007
562.74	0.0067
563.084	0.0039
563.428	0.0014
563.772	0.0035
564.116	0.0036
564.46	0.0015
564.804	0.0034
565.148	-0.0028
565.492	-0.0015
565.835	-0.0029
566.179	0.0075
566.523	0
566.866	-0.0031
567.21	-0.0051
567.554	-0.0003
567.897	0.0001
568.24	-0.0057
568.584	-0.0065
568.927	-0.0047
569.271	-0.0042
569.614	-0.0027
569.957	0.0007
570.3	0.0054
570.643	0.0047
570.986	-0.0009
571.329	0.0054
571.672	0.0099
572.015	0.0085
572.358	0.0051
572.701	0.0077
573.044	0.0043
573.387	0.0038
573.729	0.007
574.072	0.0121
574.414	0.0123
574.757	0.009
575.099	-0.0066
575.442	-0.015
575.784	-0.0021
576.127	0.0096
576.469	0.0092
576.811	-0.0031
577.153	-0.0002
577.496	0.0013
577.838	0.0032
578.18	-0.0117
578.522	-0.0127
578.864	-0.0156
579.206	0.0089
579.548	0.0104
579.889	-0.0035
580.231	0.0057
580.573	0.0164
580.915	0.0135
581.256	-0.0091
581.598	-0.0272
581.939	-0.0288
582.281	-0.0006
582.622	-0.0023
582.964	0.0026
583.305	-0.0122
583.646	-0.0007
583.988	0.0373
584.329	0.0224
584.67	0.008
585.011	-0.0214
585.352	-0.0281
585.693	-0.0156
586.034	-0.0229
586.375	-0.018
586.716	-0.0122
587.057	-0.0018
587.398	0.0144
587.738	0.0216
588.079	0.0093
588.42	0.0019
588.76	-0.0195
589.101	-0.0151
589.441	-0.0182
589.782	-0.0037
590.122	0.0078
590.463	0.0072
590.803	-0.0053
591.143	-0.0076
591.483	-0.0143
591.823	-0.0165
592.164	-0.0185
592.504	-0.0032
592.844	0.0042
593.184	-0.0023
593.523	-0.015
593.863	-0.0152
594.203	-0.006
594.543	0.0043
594.883	-0.0027
595.222	0.0039
595.562	0.0193
595.901	0.0186
596.241	0.0043
596.58	-0.0143
596.92	-0.021
597.259	-0.0241
597.599	-0.0142
597.938	0.0052
598.277	0.0067
598.616	-0.0072
598.955	-0.0151
599.295	-0.0104
599.634	0.0048
599.973	0.0091
600.312	0.0136
600.65	-0.0001
600.989	-0.0034
601.328	0.0015
601.667	0.0242
602.005	0.0082
602.344	-0.0015
602.683	-0.0075
603.021	0.0017
603.36	-0.0067
603.698	-0.0147
604.037	-0.0167
604.375	-0.0128
604.713	-0.0184
605.052	-0.0152
605.39	-0.0122
605.728	-0.0067
606.066	0.0154
606.404	0.0166
606.742	0.0089
607.08	-0.0034
607.418	-0.0143
607.756	-0.0046
608.094	-0.0009
608.431	0.0054
608.769	0.0088
609.107	-0.0083
609.444	0.0002
609.782	-0.0088
610.12	0.0067
610.457	-0.0012
610.794	-0.0149
611.132	-0.0179
611.469	-0.0181
611.806	-0.0103
612.144	-0.0173
612.481	-0.006
612.818	0.0062
613.155	-0.0027
613.492	-0.0109
613.829	-0.0123
614.166	0.0043
614.503	0.0037
614.84	-0.0048
615.176	-0.0066
615.513	-0.0029
615.85	0.0019
616.187	0.0051
616.523	-0.0026
616.86	-0.006
617.196	0.0004
617.533	0.0181
617.869	0.0111
618.205	-0.0017
618.542	-0.019
618.878	-0.0254
619.214	-0.0157
619.55	-0.0124
619.886	-0.0048
620.222	-0.0181
620.558	-0.0102
620.894	0.0022
621.23	0.0047
621.566	-0.0027
621.902	-0.0081
622.238	-0.0125
622.573	0.0062
622.909	-0.0039
623.244	-0.0004
623.58	-0.0227
623.916	-0.0197
624.251	-0.0057
624.586	0.0191
624.922	0.0214
625.257	-0.0011
625.592	-0.015
625.927	-0.0115
626.263	-0.005
626.598	-0.0036
626.933	-0.001
627.268	0.0057
627.603	-0.0009
627.938	-0.0124
628.272	-0.0091
628.607	-0.0088
628.942	-0.0024
629.277	-0.0064
629.611	0.0033
629.946	0.0116
630.281	0.0021
630.615	-0.0019
630.949	-0.0164
631.284	-0.009
631.618	-0.0021
631.953	0.0092
632.287	0.0076
632.621	-0.0043
632.955	-0.0107
633.289	-0.0106
633.623	-0.0065
633.957	-0.006
634.291	-0.0091
634.625	-0.0056
634.959	-0.0119
635.293	-0.0015
635.627	0.0007
635.96	0.0053
636.294	-0.0037
636.627	-0.0085
636.961	-0.0004
637.294	-0.0017
637.628	-0.006
637.961	-0.0112
638.295	-0.0061
638.628	0.0016
638.961	0.0026
639.294	0.0052
639.628	-0.0043
639.961	-0.012
640.294	-0.0134
640.627	-0.0048
640.96	0.0023
641.293	0.0034
641.625	-0.0003
641.958	-0.0027
642.291	-0.0097
642.624	-0.0094
642.956	-0.01
643.289	-0.0032
643.621	0.002
643.954	0.0042
644.286	0.0031
644.619	-0.0033
644.951	-0.0072
645.283	-0.0106
645.616	-0.003
645.948	0.0032
646.28	0.0105
646.612	0.004
646.944	-0.0009
647.276	-0.0095
647.608	-0.0025
647.94	-0.0006
648.272	0.0016
648.603	-0.0052
648.935	-0.0048
649.267	-0.0002
649.598	0.0025
649.93	-0.0019
650.261	-0.0007
650.593	0.0056
650.924	0.0169
651.256	0.0145
651.587	0.0057
651.918	-0.0011
652.25	-0.0057
652.581	-0.0083
652.912	-0.0109
653.243	-0.0095
653.574	-0.008
653.905	-0.002
654.236	-0.0043
654.567	0.0006
654.897	-0.0025
655.228	-0.0036
655.559	0.0019
655.89	0.0077
656.22	0.0054
656.551	-0.0063
656.881	-0.013
657.212	-0.0089
657.542	-0.0019
657.872	0.0073
658.203	0.0199
658.533	0.1344
658.863	0.0706
659.193	0.0123
659.523	-0.0471
659.853	-0.1054
660.183	-0.0595
660.513	-0.0257
660.843	-0.0117
661.173	-0.0024
661.503	-0.0039
661.833	0.0037
662.162	-0.005
662.492	-0.0063
662.822	-0.0157
663.151	-0.0131
663.481	-0.0091
663.81	-0.0024
664.139	0.0038
664.469	-0.0023
664.798	-0.0027
665.127	-0.007
665.456	-0.0006
665.785	-0.0033
666.114	-0.0052
666.443	-0.0079
666.772	-0.0031
667.101	0.0031
667.43	0.0036
667.759	0.001
668.088	0.0013
668.416	-0.0021
668.745	0.0002
669.074	-0.0019
669.402	0.0073
669.731	0.0076
670.059	0.0087
670.388	0.0001
670.716	-0.0024
671.044	-0.0057
671.372	-0.0032
671.701	-0.0022
672.029	0.0042
672.357	0.0065
672.685	0.0015
673.013	0.0008
673.341	-0.0057
673.669	-0.0014
673.996	-0
674.324	0.0152
674.652	0.0124
674.98	0.0058
675.307	-0.0022
675.635	-0.0057
675.962	-0.0021
676.29	-0.0053
676.617	-0.0026
676.945	-0.0042
677.272	-0.0085
677.599	-0.0054
677.926	-0.008
678.253	-0.0039
678.581	-0.0068
678.908	-0.0002
679.235	0.0058
679.561	0.0035
679.888	-0.005
680.215	-0.0038
680.542	0.013
680.869	0.0096
681.195	-0.0018
681.522	-0.0142
681.849	-0.0083
682.175	0.0036
682.502	0.006
682.828	0.0042
683.154	-0.0039
683.481	-0.0062
683.807	-0.0086
684.133	0.0043
684.459	0.0058
684.785	0.0113
685.111	-0.0046
685.437	-0.0079
685.763	-0.0111
686.089	-0.002
686.415	0.0054
686.741	0.0027
687.067	0.006
687.392	0.0027
687.718	0.0083
688.043	0.0073
688.369	0.0085
688.694	0.0002
689.02	-0.0069
689.345	-0.0148
689.67	-0.009
689.996	-0.0062
690.321	-0.0008
690.646	-0.0052
690.971	-0.0035
691.296	-0.0007
691.621	0.0015
691.946	0.003
692.271	0.0075
692.596	0.0054
692.921	0.0006
693.245	-0.0124
693.57	-0.0048
693.895	0.0037
694.219	0.0083
694.544	-0.0054
694.868	-0.0143
695.193	-0.0148
695.517	-0.0034
695.841	-0.001
696.166	-0.0012
696.49	-0.0052
696.814	-0.0076
697.138	-0.0076
697.462	-0.0015
697.786	0.0059
698.11	0.0129
698.434	0
698.758	-0.0134
699.081	-0.0257
699.405	-0.0134
699.729	0.0205
700.052	0.0193
700.376	0.0083
700.7	-0.0155
701.023	-0.0191
701.346	-0.0116
701.67	-0.0049
701.993	-0.0012
702.316	-0.0035
702.639	-0.0013
702.963	-0.0002
703.286	-0.0003
703.609	0.0014
703.932	-0.0019
704.255	-0.0024
704.578	-0.0009
704.9	0.0067
705.223	0.0091
705.546	0.0079
705.868	0.001
706.191	-0.0024
706.514	-0.0123
706.836	-0.0107
707.159	-0.007
707.481	-0.0024
707.803	-0.0051
708.126	-0.0052
708.448	-0.0032
708.77	0.0039
709.092	0.0059
709.414	0.0151
709.736	0.0155
710.058	0.0096
710.38	-0.0001
710.702	-0.0048
711.024	-0.0078
711.345	-0.0112
711.667	-0.0129
711.989	-0.0075
712.31	-0.0035
712.632	-0.0009
712.953	-0.0051
713.275	-0.0038
713.596	-0.0031
713.917	-0.0048
714.239	-0.0112
714.56	-0.0162
714.881	-0.0114
715.202	-0.0012
715.523	0.01
715.844	0.0042
716.165	0.0033
716.486	-0.0073
716.807	-0.0044
717.128	-0.0075
717.448	-0.0069
717.769	-0.0101
718.09	-0.008
718.41	-0.0077
718.731	-0.0076
719.051	-0.0116
719.372	-0.0112
719.692	-0.001
720.012	0.0045
720.332	0.005
720.653	0.0041
720.973	0.0111
721.293	0.0028
721.613	-0.0062
721.933	-0.0157
722.253	-0.0061
722.573	-0.0049
722.892	-0.0025
723.212	-0.0037
723.532	0.0017
723.851	-0.0011
724.171	0.0001
724.491	0.0013
724.81	0.002
725.129	-0.0012
725.449	-0.0058
725.768	-0.0051
726.087	-0.0009
726.407	-0.001
726.726	-0.0015
727.045	-0.0075
727.364	-0.0009
727.683	-0.0028
728.002	0.0032
728.321	-0.0022
728.64	-0.0053
728.958	-0.0019
729.277	-0.0036
729.596	-0.0037
729.914	-0.0069
730.233	-0.0021
730.551	0.0055
730.87	-0.0001
731.188	0.0003
731.507	-0.0079
731.825	-0.0072
732.143	-0.009
732.461	0.0004
732.779	0.0025
733.097	-0.0002
733.415	0.0045
733.733	0.0108
734.051	0.0012
734.369	-0.0052
734.687	-0.0178
735.005	-0.0078
735.322	-0.0073
735.64	0.0045
735.957	0.0047
736.275	0.0031
736.592	0.0047
736.91	0.0034
737.227	0.0034
737.544	-0.0105
737.862	-0.0093
738.179	-0.0081
738.496	0.0039
738.813	-0.0037
739.13	-0.013
739.447	-0.0151
739.764	-0.0019
740.081	0.0052
740.398	-0.0026
740.714	-0.0091
741.031	-0.0087
741.348	-0.0053
741.664	-0.0002
741.981	0.0117
742.297	0.006
742.614	-0.0038
742.93	-0.0196
743.246	-0.0133
743.563	-0.0033
743.879	-0.0003
744.195	-0.0014
744.511	-0.0025
744.827	-0.0037
745.143	0.0058
745.459	0.009
745.775	0.0098
746.091	0.001
746.406	-0.0063
746.722	-0.0103
747.038	-0.009
747.353	-0.0059
747.669	-0.0025
747.984	-0.0069
748.3	-0.003
748.615	-0.0024
748.93	0.0045
749.246	-0.0053
749.561	-0.0069
749.876	-0.0054
750.191	-0.0011
750.506	-0.0011
750.821	-0.0048
751.136	-0.0012
751.451	0.0022
751.766	-0.0017
752.08	-0.0018
752.395	-0.0024
752.71	-0.0006
753.024	0.0002
753.339	-0.0033
753.653	-0.0048
753.968	0.0005
754.282	0.0085
754.596	0.009
754.911	-0.002
755.225	0.0017
755.539	0.0041
755.853	0.0083
756.167	0.0065
756.481	0.0067
756.795	-0.0007
757.109	-0.0057
757.423	-0.0069
757.736	-0.002
758.05	-0.002
758.364	0.003
758.677	-0.0001
758.991	0.0007
759.304	0.0029
759.618	0.0072
759.931	0.0033
760.244	0.0071
760.558	0.0004
760.871	-0.0034
761.184	-0.0212
761.497	-0.0222
761.81	-0.0121
762.123	0.0036
762.436	0.0076
762.749	-0.0013
763.062	-0.0074
763.374	0.0018
763.687	-0.0019
764	-0.0023
764.312	-0.0193
764.625	-0.0148
764.937	-0.0143
765.25	-0.0034
765.562	0.0051
765.874	0.0019
766.186	0.001
766.499	-0.0068
766.811	-0.0046
767.123	0.0028
767.435	0.0058
767.747	0.0056
768.059	-0.0075
768.37	-0.0103
768.682	-0.0162
768.994	-0.0145
769.306	-0.0176
769.617	-0.01
769.929	-0.0078
770.24	-0.0073
770.552	-0.0036
770.863	-0.0007
771.174	0.0014
771.486	-0.0018
771.797	-0.0057
772.108	-0.011
772.419	-0.0161
772.73	-0.0137
773.041	-0.0058
773.352	-0.0024
773.663	-0.0037
773.974	-0.0071
774.285	-0.0131
774.595	-0.0131
774.906	-0.0096
775.217	-0.0017
775.527	-0.0007
775.838	-0.0031
776.148	-0.0012
776.458	-0.0034
776.769	-0.003
777.079	-0.0059
777.389	-0.0029
777.699	-0.0028
778.009	-0.0052
778.319	-0.0092
778.629	-0.016
778.939	-0.0126
779.249	-0.0071
779.559	-0.0003
779.869	-0.0033
780.178	-0.006
780.488	-0.0115
780.798	-0.0081
781.107	-0.0027
781.417	0.0092
781.726	0.0056
782.035	0.0033
782.345	-0.0059
782.654	-0.0062
782.963	-0.0052
783.272	-0.0011
783.581	0.0058
783.89	0.0117
784.199	0.0057
784.508	-0.007
784.817	-0.0189
785.126	-0.0205
785.434	-0.014
785.743	-0.0115
786.052	-0.0048
786.36	-0.0082
786.669	-0.0068
786.977	-0.0086
787.285	-0.003
787.594	-0.0006
787.902	-0.0032
788.21	-0.0047
788.518	0.0018
788.826	0.0052
789.135	0.0034
789.442	-0.0093
789.75	-0.0114
790.058	-0.0121
790.366	-0.0094
790.674	-0.0056
790.981	-0.0001
791.289	0.0071
791.597	0.0016
791.904	-0.0053
792.212	-0.0119
792.519	-0.0112
792.826	-0.0014
793.134	0.0016
793.441	0.0005
793.748	-0.0006
794.055	-0.0001
794.362	0.0035
794.669	-0.0078
794.976	-0.0071
795.283	-0.0154
795.59	-0.0043
795.897	-0.0092
796.203	-0.0017
796.51	0.0084
796.817	0.0144
797.123	0.0005
797.43	-0.0126
797.736	-0.0159
798.042	-0.011
798.349	-0.0097
798.655	-0.0193
798.961	-0.0113
799.267	-0.0066
799.573	-0.0008
799.879	-0.0024
800.185	-0.0045
800.491	-0.0042
800.797	-0.0074
801.103	-0.009
801.408	-0.0097
801.714	-0.0019
802.02	-0.0018
802.325	0.0032
802.631	-0.0023
802.936	-0.0006
803.242	-0.0064
803.547	-0.0097
803.852	-0.0066
804.157	-0.0069
804.462	-0.0038
804.768	-0.0083
805.073	-0.0082
805.378	-0.0097
805.682	-0.0074
805.987	-0.0037
806.292	0.0037
806.597	0
806.902	0.0019
807.206	-0.0097
807.511	-0.0088
807.815	-0.0136
808.12	-0.0035
808.424	-0.0023
808.728	0.0027
809.033	0.005
809.337	-0.0048
809.641	-0.0153
809.945	-0.0158
810.249	-0.0052
810.553	-0.0033
810.857	-0.0048
811.161	-0.0109
811.465	-0.0052
811.768	-0.0154
812.072	-0.0124
812.376	-0.0132
812.679	0.0043
812.983	-0.0005
813.286	-0.0049
813.59	-0.012
813.893	-0.008
814.196	-0.0033
814.499	-0.0028
814.803	-0.0036
815.106	-0.0041
815.409	-0.0103
815.712	-0.0105
816.015	-0.006
816.318	0.0046
816.62	0.0072
816.923	-0.0047
817.226	-0.0148
817.528	-0.0143
817.831	-0.0054
818.133	-0.0019
818.436	-0.0032
818.738	-0.0111
819.041	-0.0087
819.343	-0.0058
819.645	0.0055
819.947	0.0072
820.249	0.0011
820.551	-0.0092
820.853	-0.0194
821.155	-0.0157
821.457	-0.0111
821.759	-0.0079
822.061	-0.0087
822.362	-0.01
822.664	-0.0066
822.966	-0.0008
823.267	0.0107
823.569	0.0118
823.87	0.0019
824.171	-0.0151
824.473	-0.0188
824.774	-0.0186
825.075	-0.0134
825.376	-0.015
825.677	-0.012
825.978	-0.0092
826.279	-0.0088
826.58	-0.015
826.881	-0.018
827.181	-0.0264
827.482	-0.0185
827.783	-0.0168
828.083	-0.0052
828.384	-0.009
828.684	-0.0147
828.985	-0.0125
829.285	-0.003
829.585	0.0044
829.885	0.0037
830.185	-0.0046
830.486	-0.0037
830.786	-0.0147
831.086	-0.0191
831.385	-0.0221
831.685	-0.0134
831.985	-0.0116
832.285	-0.0165
832.585	-0.0132
832.884	-0.0151
833.184	-0.0196
833.483	-0.0313
833.783	-0.0297
834.082	-0.0159
834.381	-0.0108
834.681	-0.006
834.98	-0.0189
835.279	-0.0189
835.578	-0.0165
835.877	-0.0173
836.176	-0.015
836.475	-0.0146
836.774	-0.0011
837.072	0.0019
837.371	0.0069
837.67	-0.0016
837.968	-0.0071
838.267	-0.025
838.565	-0.0226
838.864	-0.0285
839.162	-0.0266
839.46	-0.0235
839.759	-0.0153
840.057	-0.0127
840.355	-0.0107
840.653	-0.0186
840.951	-0.006
841.249	-0.0133
841.547	-0.0085
841.845	-0.0108
842.142	0.0018
842.44	0.0138
842.738	0.0167
843.035	0.018
843.333	0.0108
843.63	-0.0056
843.928	-0.0037
844.225	-0.0088
844.522	-0.0022
844.82	-0.0063
845.117	-0.0024
845.414	0.0051
845.711	-0.0055
846.008	-0.0109
846.305	-0.0274
846.602	-0.0202
846.898	-0.0141
847.195	-0.011
847.492	-0.0231
847.788	-0.0204
848.085	-0.0157
848.382	-0.0046
848.678	-0.0129
848.974	-0.0168
849.271	-0.0221
849.567	-0.017
849.863	-0.012
850.159	-0.0043
850.455	0.0001
850.751	0.0008
851.047	-0.0088
851.343	-0.0136
851.639	-0.0103
851.935	0.0128
852.23	0.0103
852.526	0.0009
852.822	-0.0159
853.117	-0.0095
853.413	-0.0077
853.708	-0.0125
854.003	-0.0206
854.299	-0.0309
854.594	-0.0327
854.889	-0.0306
855.184	-0.0208
855.479	-0.0158
855.774	-0.0123
856.069	-0.0017
856.364	0.0152
856.659	0.011
856.954	0.014
857.248	-0.0036
857.543	-0.0094
857.837	-0.029
858.132	-0.0215
858.426	-0.0208
858.721	-0.0178
859.015	-0.0187
859.309	-0.0117
859.604	-0.0025
859.898	-0.0195
860.192	-0.0155
860.486	-0.0263
860.78	-0.0206
861.074	-0.0169
861.367	-0.0241
861.661	-0.0014
861.955	-0.0014
862.248	0.0192
862.542	-0.013
862.836	-0.0161
863.129	-0.0185
863.422	-0.0193
863.716	-0.0321
864.009	-0.0401
864.302	-0.0206
864.595	-0.0046
864.889	-0.0028
865.182	-0.0241
865.475	-0.0252
865.767	-0.0253
866.06	-0.0163
866.353	-0.0358
866.646	-0.0231
866.938	-0.0205
867.231	-0.0316
867.524	-0.0426
867.816	-0.0274
868.109	-0.0053
868.401	-0.0119
868.693	-0.0202
868.985	-0.0168
869.278	-0.0047
869.57	-0.0114
869.862	-0.0363
870.154	-0.0551
870.446	-0.0303
870.738	-0.0209
871.029	-0.0098
871.321	-0.0048
871.613	0.034
871.904	0.0328
872.196	0.0197
872.487	-0.0359
872.779	-0.0502
873.07	-0.0568
873.362	-0.0377
873.653	-0.0195
873.944	-0.0163
874.235	-0.0343
874.526	-0.0235
874.817	-0.0342
875.108	-0.0315
875.399	-0.0108
875.69	0.0128
875.981	0.048
876.271	0.0187
876.562	-0.0026
876.853	-0.0082
877.143	-0.0197
877.434	-0.0052
877.724	-0.0062
878.014	-0.0044
878.305	-0.0121
878.595	-0.024
878.885	-0.017
879.175	-0.018
879.465	-0.0028
879.755	-0.0035
880.045	0.0004
880.335	-0.0026
880.624	0.0035
880.914	0.0035
