Data from StonyCreek_071017_1_1b_Absorbance_22-05-57-683.txt Node
Date: Tue Jul 18 22:05:57 MDT 2017
User: Tank Lab
Spectrometer: FLMS01220
Trigger mode: 0
Integration Time (sec): 1.000000E-1
Scans to average: 10
Electric dark correction enabled: true
Nonlinearity correction enabled: false
Boxcar width: 1
XAxis mode: Wavelengths
Number of Pixels in Spectrum: 2048
>>>>>Begin Spectral Data<<<<<
179.47	0.2994
179.856	0.2994
180.241	0.8801
180.626	-0
181.011	-0
181.396	-0
181.781	-0
182.166	-0
182.551	-0.0546
182.936	0.2692
183.321	-0
183.706	0.0065
184.091	-0.139
184.476	-0.0686
184.86	-0.2911
185.245	-0
185.63	-0.0608
186.015	0.6544
186.399	-0.266
186.784	0.9278
187.169	0.5439
187.553	-0.1435
187.938	-0.019
188.322	0.1598
188.707	0.1611
189.091	0.1262
189.475	0.1049
189.86	0.1184
190.244	0.1872
190.629	0.2074
191.013	0.2336
191.397	0.2618
191.781	0.3155
192.165	0.3896
192.55	0.4204
192.934	0.4626
193.318	0.4746
193.702	0.5069
194.086	0.5358
194.47	0.537
194.854	0.5499
195.238	0.5341
195.622	0.5752
196.006	0.5809
196.389	0.5803
196.773	0.5561
197.157	0.5314
197.541	0.5391
197.924	0.5318
198.308	0.5234
198.692	0.4967
199.075	0.4845
199.459	0.4741
199.843	0.4697
200.226	0.4648
200.61	0.4574
200.993	0.447
201.376	0.4385
201.76	0.4267
202.143	0.4268
202.527	0.4167
202.91	0.4103
203.293	0.3987
203.676	0.3968
204.059	0.3954
204.443	0.3931
204.826	0.3868
205.209	0.3798
205.592	0.3738
205.975	0.3682
206.358	0.3661
206.741	0.3603
207.124	0.3592
207.507	0.3579
207.89	0.3568
208.273	0.3504
208.655	0.3448
209.038	0.3401
209.421	0.3375
209.804	0.34
210.186	0.3373
210.569	0.3386
210.951	0.3316
211.334	0.3281
211.717	0.3235
212.099	0.3204
212.482	0.3183
212.864	0.315
213.246	0.3117
213.629	0.3121
214.011	0.3108
214.393	0.3112
214.776	0.3075
215.158	0.3073
215.54	0.3004
215.922	0.2996
216.305	0.2984
216.687	0.2991
217.069	0.2949
217.451	0.2899
217.833	0.2882
218.215	0.2885
218.597	0.2855
218.979	0.284
219.361	0.2813
219.742	0.2783
220.124	0.2771
220.506	0.273
220.888	0.2726
221.27	0.2689
221.651	0.2673
222.033	0.2641
222.415	0.2607
222.796	0.258
223.178	0.2551
223.559	0.2542
223.941	0.2521
224.322	0.249
224.704	0.2493
225.085	0.248
225.466	0.2467
225.848	0.2415
226.229	0.2408
226.61	0.2416
226.992	0.24
227.373	0.2358
227.754	0.2318
228.135	0.2314
228.516	0.2328
228.897	0.2323
229.278	0.2287
229.659	0.2244
230.04	0.2211
230.421	0.2181
230.802	0.2154
231.183	0.2144
231.564	0.2137
231.944	0.2118
232.325	0.2099
232.706	0.2079
233.087	0.2077
233.467	0.2082
233.848	0.2079
234.229	0.2064
234.609	0.202
234.99	0.2011
235.37	0.1992
235.751	0.1997
236.131	0.1983
236.511	0.197
236.892	0.1947
237.272	0.1935
237.652	0.1925
238.033	0.1911
238.413	0.1888
238.793	0.1866
239.173	0.1849
239.553	0.1842
239.933	0.185
240.313	0.1853
240.694	0.184
241.074	0.1818
241.453	0.1811
241.833	0.18
242.213	0.1805
242.593	0.1796
242.973	0.1795
243.353	0.1779
243.732	0.1762
244.112	0.1753
244.492	0.1728
244.872	0.1733
245.251	0.1739
245.631	0.1755
246.01	0.1733
246.39	0.171
246.769	0.1692
247.149	0.1686
247.528	0.1667
247.908	0.1662
248.287	0.1671
248.666	0.1677
249.045	0.1658
249.425	0.1633
249.804	0.1622
250.183	0.1636
250.562	0.1636
250.941	0.1622
251.32	0.1588
251.699	0.1596
252.078	0.1592
252.457	0.1586
252.836	0.1566
253.215	0.1567
253.594	0.1581
253.973	0.1571
254.352	0.1573
254.731	0.1566
255.109	0.1569
255.488	0.1557
255.867	0.1546
256.245	0.1545
256.624	0.1534
257.002	0.153
257.381	0.1503
257.759	0.1509
258.138	0.1504
258.516	0.1516
258.895	0.1491
259.273	0.1486
259.651	0.1473
260.03	0.149
260.408	0.1485
260.786	0.1482
261.164	0.1467
261.542	0.1459
261.921	0.1447
262.299	0.1424
262.677	0.1415
263.055	0.1417
263.433	0.1426
263.811	0.1434
264.188	0.1418
264.566	0.1413
264.944	0.1395
265.322	0.1404
265.7	0.1413
266.077	0.1422
266.455	0.1401
266.833	0.1383
267.21	0.1367
267.588	0.1366
267.966	0.1345
268.343	0.1335
268.721	0.1341
269.098	0.1347
269.475	0.1344
269.853	0.1337
270.23	0.1328
270.607	0.1325
270.985	0.132
271.362	0.1306
271.739	0.1301
272.116	0.128
272.494	0.1279
272.871	0.1277
273.248	0.1277
273.625	0.1272
274.002	0.1251
274.379	0.1247
274.756	0.1242
275.132	0.1233
275.509	0.1229
275.886	0.1219
276.263	0.1215
276.64	0.1202
277.016	0.1195
277.393	0.118
277.77	0.1167
278.146	0.1174
278.523	0.1169
278.899	0.1173
279.276	0.1162
279.652	0.1169
280.029	0.1161
280.405	0.1156
280.782	0.1146
281.158	0.1132
281.534	0.113
281.91	0.113
282.287	0.1129
282.663	0.1115
283.039	0.1121
283.415	0.112
283.791	0.1117
284.167	0.1099
284.543	0.1096
284.919	0.1088
285.295	0.1074
285.671	0.1055
286.047	0.1049
286.423	0.1054
286.799	0.1058
287.174	0.1057
287.55	0.103
287.926	0.1033
288.301	0.1021
288.677	0.1038
289.053	0.1019
289.428	0.0994
289.804	0.0978
290.179	0.0988
290.555	0.0992
290.93	0.0992
291.305	0.0973
291.681	0.0968
292.056	0.0958
292.431	0.0935
292.806	0.0961
293.182	0.0959
293.557	0.0981
293.932	0.096
294.307	0.0947
294.682	0.0928
295.057	0.092
295.432	0.0915
295.807	0.0907
296.182	0.089
296.557	0.0882
296.932	0.0893
297.306	0.0884
297.681	0.0896
298.056	0.0892
298.43	0.0904
298.805	0.0889
299.18	0.0868
299.554	0.0863
299.929	0.0863
300.303	0.087
300.678	0.0866
301.052	0.0874
301.427	0.0863
301.801	0.0858
302.175	0.0845
302.55	0.0843
302.924	0.0837
303.298	0.0821
303.672	0.082
304.046	0.0823
304.421	0.0826
304.795	0.0828
305.169	0.0818
305.543	0.0813
305.917	0.0786
306.291	0.0777
306.664	0.0783
307.038	0.079
307.412	0.0774
307.786	0.0755
308.16	0.0756
308.533	0.0755
308.907	0.0755
309.281	0.0743
309.654	0.0752
310.028	0.0748
310.401	0.0749
310.775	0.0749
311.148	0.0729
311.522	0.0724
311.895	0.0708
312.268	0.0709
312.642	0.0707
313.015	0.0709
313.388	0.0711
313.761	0.071
314.135	0.0694
314.508	0.0694
314.881	0.0685
315.254	0.0687
315.627	0.0685
316	0.068
316.373	0.0691
316.746	0.0687
317.118	0.0677
317.491	0.0666
317.864	0.0651
318.237	0.0654
318.61	0.0651
318.982	0.0654
319.355	0.0658
319.727	0.064
320.1	0.0626
320.473	0.0631
320.845	0.0635
321.218	0.0655
321.59	0.0649
321.962	0.0645
322.335	0.0628
322.707	0.0607
323.079	0.0617
323.452	0.0615
323.824	0.0623
324.196	0.061
324.568	0.0605
324.94	0.0601
325.312	0.0616
325.684	0.063
326.056	0.0613
326.428	0.0584
326.8	0.055
327.172	0.056
327.544	0.0552
327.915	0.0554
328.287	0.0533
328.659	0.0541
329.031	0.0544
329.402	0.0554
329.774	0.0535
330.145	0.0533
330.517	0.0527
330.888	0.0533
331.26	0.0519
331.631	0.0518
332.003	0.0517
332.374	0.0505
332.745	0.049
333.117	0.0483
333.488	0.0501
333.859	0.0515
334.23	0.051
334.601	0.0494
334.972	0.0471
335.343	0.0486
335.714	0.0485
336.085	0.0484
336.456	0.0476
336.827	0.0469
337.198	0.0477
337.569	0.0466
337.94	0.0475
338.31	0.0467
338.681	0.0453
339.052	0.042
339.422	0.042
339.793	0.044
340.164	0.0462
340.534	0.0453
340.905	0.0449
341.275	0.0449
341.645	0.0461
342.016	0.0443
342.386	0.0436
342.756	0.0419
343.127	0.0416
343.497	0.0417
343.867	0.0417
344.237	0.0403
344.607	0.0394
344.977	0.0392
345.347	0.0402
345.717	0.0389
346.087	0.0393
346.457	0.0399
346.827	0.039
347.197	0.0384
347.567	0.0365
347.936	0.0384
348.306	0.0389
348.676	0.0414
349.046	0.0422
349.415	0.0408
349.785	0.0389
350.154	0.0372
350.524	0.0373
350.893	0.0372
351.263	0.0366
351.632	0.0354
352.001	0.0369
352.371	0.0365
352.74	0.0383
353.109	0.0354
353.478	0.0372
353.847	0.0368
354.217	0.0387
354.586	0.0357
354.955	0.0349
355.324	0.0324
355.693	0.0338
356.062	0.0326
356.43	0.0357
356.799	0.0367
357.168	0.036
357.537	0.0332
357.906	0.0316
358.274	0.0331
358.643	0.033
359.011	0.0329
359.38	0.0321
359.749	0.0305
360.117	0.0309
360.486	0.0297
360.854	0.032
361.222	0.0309
361.591	0.0319
361.959	0.0291
362.327	0.0296
362.695	0.0282
363.064	0.0294
363.432	0.0275
363.8	0.0277
364.168	0.0286
364.536	0.029
364.904	0.0298
365.272	0.0291
365.64	0.0306
366.008	0.0314
366.376	0.0311
366.743	0.0308
367.111	0.0301
367.479	0.0304
367.847	0.0288
368.214	0.0275
368.582	0.0269
368.949	0.0269
369.317	0.0268
369.684	0.0265
370.052	0.0279
370.419	0.0297
370.787	0.0303
371.154	0.028
371.521	0.0256
371.889	0.0242
372.256	0.0255
372.623	0.024
372.99	0.0225
373.357	0.0205
373.724	0.0222
374.091	0.0212
374.458	0.0216
374.825	0.0206
375.192	0.0241
375.559	0.0238
375.926	0.0247
376.293	0.024
376.659	0.0247
377.026	0.0229
377.393	0.0211
377.759	0.0206
378.126	0.0222
378.492	0.025
378.859	0.0245
379.225	0.0238
379.592	0.0205
379.958	0.0195
380.325	0.0199
380.691	0.0205
381.057	0.0231
381.423	0.0216
381.79	0.0253
382.156	0.0245
382.522	0.0252
382.888	0.0205
383.254	0.0204
383.62	0.0216
383.986	0.0212
384.352	0.0204
384.718	0.0199
385.084	0.0236
385.449	0.0236
385.815	0.022
386.181	0.0201
386.547	0.0192
386.912	0.0168
387.278	0.0144
387.643	0.0161
388.009	0.0182
388.374	0.0198
388.74	0.0194
389.105	0.0196
389.471	0.0184
389.836	0.0175
390.201	0.0169
390.566	0.0194
390.932	0.0215
391.297	0.023
391.662	0.0218
392.027	0.0188
392.392	0.0156
392.757	0.0148
393.122	0.0148
393.487	0.0159
393.852	0.0155
394.217	0.0164
394.582	0.0191
394.946	0.0218
395.311	0.0228
395.676	0.0222
396.04	0.0164
396.405	0.0135
396.77	0.012
397.134	0.016
397.499	0.0163
397.863	0.0135
398.227	0.014
398.592	0.0164
398.956	0.0193
399.32	0.019
399.685	0.0166
400.049	0.0182
400.413	0.0193
400.777	0.0187
401.141	0.0199
401.505	0.0187
401.869	0.0164
402.233	0.0119
402.597	0.0099
402.961	0.0117
403.325	0.0132
403.689	0.0131
404.053	0.0132
404.416	0.0111
404.78	0.0105
405.144	0.0125
405.507	0.0149
405.871	0.0139
406.234	0.0141
406.598	0.0128
406.961	0.0156
407.325	0.0149
407.688	0.0128
408.051	0.0142
408.415	0.0137
408.778	0.0159
409.141	0.0121
409.504	0.0133
409.867	0.013
410.23	0.0117
410.593	0.0083
410.956	0.0096
411.319	0.0136
411.682	0.0159
412.045	0.0158
412.408	0.0139
412.771	0.0127
413.134	0.0133
413.496	0.0126
413.859	0.0154
414.222	0.0128
414.584	0.0145
414.947	0.0134
415.309	0.0156
415.672	0.0146
416.034	0.0146
416.396	0.0145
416.759	0.0146
417.121	0.013
417.483	0.0109
417.846	0.0116
418.208	0.0131
418.57	0.0136
418.932	0.0114
419.294	0.0126
419.656	0.011
420.018	0.0135
420.38	0.0094
420.742	0.0098
421.104	0.0087
421.466	0.0082
421.827	0.0097
422.189	0.0094
422.551	0.0101
422.912	0.0101
423.274	0.0122
423.636	0.0134
423.997	0.0136
424.359	0.0135
424.72	0.0143
425.081	0.0131
425.443	0.01
425.804	0.0089
426.165	0.0082
426.527	0.0068
426.888	0.0073
427.249	0.0101
427.61	0.0144
427.971	0.0116
428.332	0.0104
428.693	0.006
429.054	0.0075
429.415	0.007
429.776	0.0089
430.137	0.0093
430.498	0.0081
430.858	0.0088
431.219	0.0106
431.58	0.0109
431.94	0.012
432.301	0.0117
432.661	0.0104
433.022	0.0082
433.382	0.0102
433.743	0.0088
434.103	0.0103
434.463	0.0046
434.824	0.0057
435.184	0.0054
435.544	0.0061
435.904	0.0063
436.264	0.0044
436.624	0.007
436.985	0.0105
437.345	0.0108
437.704	0.0097
438.064	0.0094
438.424	0.0073
438.784	0.0087
439.144	0.0137
439.504	0.0136
439.863	0.0095
440.223	0.0023
440.583	0.0048
440.942	0.0082
441.302	0.0079
441.661	0.0067
442.021	0.0046
442.38	0.0022
442.739	0.0024
443.099	0.0006
443.458	0.004
443.817	0.0054
444.176	0.0082
444.536	0.0055
444.895	0.0052
445.254	0.0058
445.613	0.0096
445.972	0.0087
446.331	0.0077
446.69	0.0031
447.049	0.0043
447.407	0.0031
447.766	0.0064
448.125	0.0047
448.484	0.0064
448.842	0.0088
449.201	0.0098
449.559	0.0084
449.918	0.0042
450.276	0.0052
450.635	0.006
450.993	0.0058
451.352	0.006
451.71	0.0051
452.068	0.0059
452.426	0.0058
452.785	0.0051
453.143	0.007
453.501	0.0055
453.859	0.0071
454.217	0.0083
454.575	0.0096
454.933	0.0102
455.291	0.0086
455.649	0.0055
456.006	0.0029
456.364	0.0048
456.722	0.002
457.079	0.0045
457.437	0.003
457.795	0.0085
458.152	0.0094
458.51	0.0091
458.867	0.0098
459.225	0.0088
459.582	0.0102
459.939	0.0076
460.297	0.0051
460.654	0.0021
461.011	0.0016
461.368	0.0068
461.725	0.0086
462.082	0.0097
462.44	0.0085
462.797	0.0061
463.153	0.0071
463.51	0.0053
463.867	0.0077
464.224	0.0051
464.581	0.0025
464.938	0.0018
465.294	0.0054
465.651	0.0065
466.008	0.0073
466.364	0.0037
466.721	0.0056
467.077	0.0058
467.434	0.0092
467.79	0.0096
468.146	0.0099
468.503	0.0124
468.859	0.0064
469.215	0.002
469.571	-0.0036
469.927	0.0005
470.284	0.0026
470.64	0.0079
470.996	0.0108
471.352	0.0127
471.707	0.0087
472.063	0.0067
472.419	0.0055
472.775	0.0057
473.131	0.0099
473.486	0.0094
473.842	0.0075
474.198	0.0033
474.553	0.0037
474.909	0.0078
475.264	0.0076
475.62	0.0084
475.975	0.004
476.331	0.0057
476.686	0.0057
477.041	0.0079
477.396	0.0092
477.752	0.0122
478.107	0.0106
478.462	0.0049
478.817	0.0023
479.172	0.006
479.527	0.0099
479.882	0.0064
480.237	0.0021
480.591	0.0014
480.946	0.0028
481.301	0.0039
481.656	-0.0013
482.01	0.0001
482.365	-0.0011
482.72	0.005
483.074	0.007
483.429	0.0077
483.783	0.0062
484.137	0.0085
484.492	0.008
484.846	0.008
485.2	0.0006
485.555	-0.0009
485.909	0.0001
486.263	0.0026
486.617	0.0024
486.971	0.0015
487.325	0.0052
487.679	0.0101
488.033	0.0067
488.387	0.0109
488.741	0.0105
489.094	0.0057
489.448	-0.0014
489.802	0.0017
490.156	0.0083
490.509	0.0034
490.863	-0.0044
491.216	-0.003
491.57	0.0001
491.923	0.0028
492.277	0.0002
492.63	0.0009
492.983	0.001
493.337	0.0007
493.69	0.0032
494.043	0.0017
494.396	0.0014
494.749	-0.0011
495.102	-0.0006
495.455	0.0021
495.808	0.0003
496.161	0.0013
496.514	-0.0008
496.867	0.0016
497.22	0.001
497.572	-0.0002
497.925	0.0004
498.278	-0.001
498.63	0.0067
498.983	0.0084
499.335	0.0089
499.688	0.0005
500.04	-0.0042
500.393	-0.005
500.745	-0.0013
501.097	0.0036
501.449	0.0022
501.802	0.001
502.154	0.0015
502.506	0.0027
502.858	0.0041
503.21	0.0008
503.562	0.0026
503.914	0.0053
504.266	0.0084
504.618	0.0054
504.969	0.0043
505.321	-0.0014
505.673	-0.0005
506.025	-0.0017
506.376	0.0021
506.728	-0.0007
507.079	-0.0017
507.431	-0.0014
507.782	0.002
508.134	0.0031
508.485	0.0003
508.836	-0.0023
509.188	-0.0011
509.539	0.0024
509.89	0.0013
510.241	-0.0029
510.592	0.0004
510.943	0.0014
511.294	0.0019
511.645	-0.0053
511.996	-0.0031
512.347	0.0003
512.698	0.004
513.049	0.0033
513.399	-0.0007
513.75	-0.0031
514.101	-0.0016
514.451	0.0014
514.802	0.0042
515.152	0.0023
515.503	0.0037
515.853	-0.0006
516.203	-0.0024
516.554	-0.0054
516.904	-0.001
517.254	0.003
517.604	0.0049
517.955	0.0002
518.305	0.0032
518.655	0.0044
519.005	0.0082
519.355	0.0079
519.705	0.0033
520.055	0.001
520.404	-0.0007
520.754	0.0031
521.104	0.0057
521.454	0.0059
521.803	0.0044
522.153	0.0027
522.502	-0.0012
522.852	-0.0034
523.201	-0.0034
523.551	-0.0015
523.9	0.003
524.249	0.0036
524.599	0.0017
524.948	-0.0003
525.297	0.0007
525.646	0.0019
525.995	0.0013
526.344	0.0014
526.694	0.0056
527.042	0.0041
527.391	-0.0008
527.74	-0.005
528.089	-0.0052
528.438	-0.0005
528.787	0.0005
529.135	0.0021
529.484	0.0039
529.833	0.0037
530.181	0.0049
530.53	0.0008
530.878	0.001
531.227	0.004
531.575	0.0051
531.923	0.0009
532.271	-0.0034
532.62	-0.0018
532.968	0.002
533.316	0.0016
533.664	0.0007
534.012	0.0009
534.36	0.0039
534.708	-0.0008
535.056	0.0003
535.404	-0.0045
535.752	0.002
536.1	0.0005
536.447	0.003
536.795	0.0019
537.143	0.0034
537.49	0.0006
537.838	-0.0023
538.185	-0.0034
538.533	-0.001
538.88	0.0018
539.228	-0.0016
539.575	-0.0011
539.922	-0.0026
540.269	0.0061
540.617	0.0035
540.964	0.0004
541.311	-0.0039
541.658	-0.0006
542.005	0.0029
542.352	-0
542.699	-0.0038
543.045	-0.0094
543.392	-0.0064
543.739	-0.006
544.086	-0.0021
544.432	-0.004
544.779	0.0004
545.126	-0.0006
545.472	-0.0025
545.819	-0.0042
546.165	-0.0014
546.512	0.0033
546.858	0.0064
547.204	0.0055
547.55	0.0017
547.897	-0.001
548.243	-0.0073
548.589	-0.0049
548.935	-0.0073
549.281	-0.0044
549.627	-0.0063
549.973	-0.0019
550.319	0.0013
550.665	0.0042
551.01	-0.0021
551.356	-0.0068
551.702	-0.0118
552.048	-0.0154
552.393	-0.0113
552.739	-0.007
553.084	-0.0002
553.43	-0.0015
553.775	-0.0038
554.12	-0.0034
554.466	0.0028
554.811	0.0039
555.156	0.0053
555.502	0.0018
555.847	0.0013
556.192	0.0009
556.537	-0.0024
556.882	-0.0028
557.227	-0.0103
557.572	-0.0038
557.917	0.0057
558.261	0.0056
558.606	-0.0008
558.951	-0.0092
559.295	-0.0117
559.64	-0.0068
559.985	-0.0072
560.329	-0.0019
560.674	-0.0051
561.018	-0.009
561.363	-0.008
561.707	-0.0063
562.051	-0.0019
562.395	0.0037
562.74	0.0015
563.084	0.0022
563.428	0.001
563.772	0.0032
564.116	-0.0007
564.46	-0.0021
564.804	-0.0009
565.148	-0.0045
565.492	-0.0016
565.835	-0.0001
566.179	0.0074
566.523	-0.0001
566.866	-0.0055
567.21	-0.0068
567.554	-0.0001
567.897	-0.0004
568.24	-0.0044
568.584	-0.0087
568.927	-0.0065
569.271	-0.0052
569.614	-0.0026
569.957	-0.0004
570.3	0.0037
570.643	0.0035
570.986	-0
571.329	0.0043
571.672	0.0057
572.015	0.0053
572.358	0.0038
572.701	0.009
573.044	0.0034
573.387	0.001
573.729	0.0003
574.072	0.0066
574.414	0.0098
574.757	0.0079
575.099	-0.0074
575.442	-0.0171
575.784	-0.0044
576.127	0.0094
576.469	0.01
576.811	-0.0026
577.153	-0.0016
577.496	-0.002
577.838	0.0003
578.18	-0.0142
578.522	-0.015
578.864	-0.0178
579.206	0.0055
579.548	0.0069
579.889	-0.004
580.231	0.0078
580.573	0.0196
580.915	0.0148
581.256	-0.0095
581.598	-0.0279
581.939	-0.0302
582.281	-0.0024
582.622	-0.0058
582.964	-0.001
583.305	-0.0166
583.646	-0.0035
583.988	0.0356
584.329	0.0221
584.67	0.007
585.011	-0.0233
585.352	-0.0304
585.693	-0.0183
586.034	-0.0249
586.375	-0.0203
586.716	-0.014
587.057	-0.0032
587.398	0.0128
587.738	0.0212
588.079	0.0088
588.42	0.0016
588.76	-0.0189
589.101	-0.0154
589.441	-0.0194
589.782	-0.0074
590.122	0.0026
590.463	0.0054
590.803	-0.0055
591.143	-0.0041
591.483	-0.0116
591.823	-0.0141
592.164	-0.0191
592.504	-0.007
592.844	0.0001
593.184	-0.005
593.523	-0.016
593.863	-0.0141
594.203	-0.0072
594.543	0.003
594.883	-0.0065
595.222	0.0007
595.562	0.0175
595.901	0.0159
596.241	0.0038
596.58	-0.0143
596.92	-0.0208
597.259	-0.024
597.599	-0.0136
597.938	0.0046
598.277	0.0049
598.616	-0.0112
598.955	-0.0191
599.295	-0.0175
599.634	0.0006
599.973	0.0085
600.312	0.0156
600.65	-0.0028
600.989	-0.0065
601.328	-0.0013
601.667	0.0239
602.005	0.0082
602.344	-0.0012
602.683	-0.0057
603.021	0.0029
603.36	-0.006
603.698	-0.0175
604.037	-0.0196
604.375	-0.0139
604.713	-0.015
605.052	-0.0109
605.39	-0.0089
605.728	-0.0063
606.066	0.0141
606.404	0.0157
606.742	0.0079
607.08	-0.0036
607.418	-0.0146
607.756	-0.0051
608.094	-0.0025
608.431	0.0034
608.769	0.0099
609.107	-0.0069
609.444	0.0011
609.782	-0.0095
610.12	0.0072
610.457	-0.0007
610.794	-0.0166
611.132	-0.0214
611.469	-0.0209
611.806	-0.0133
612.144	-0.0188
612.481	-0.011
612.818	0.0046
613.155	-0.0033
613.492	-0.0086
613.829	-0.0105
614.166	0.0018
614.503	-0.0006
614.84	-0.008
615.176	-0.0098
615.513	-0.0061
615.85	-0.0042
616.187	0.0018
616.523	-0.0035
616.86	-0.0043
617.196	0.0016
617.533	0.0189
617.869	0.0108
618.205	-0.0025
618.542	-0.0224
618.878	-0.0284
619.214	-0.0161
619.55	-0.0089
619.886	-0.0027
620.222	-0.0179
620.558	-0.0122
620.894	0.0024
621.23	0.0023
621.566	-0.0023
621.902	-0.0105
622.238	-0.0123
622.573	0.0032
622.909	-0.0029
623.244	0.0006
623.58	-0.0197
623.916	-0.0215
624.251	-0.0067
624.586	0.0131
624.922	0.0162
625.257	-0.0068
625.592	-0.0165
625.927	-0.0146
626.263	-0.0087
626.598	-0.0079
626.933	-0.0037
627.268	0.0042
627.603	-0.0052
627.938	-0.0187
628.272	-0.017
628.607	-0.0169
628.942	-0.0064
629.277	-0.0132
629.611	-0.0016
629.946	0.0068
630.281	0.0001
630.615	-0.0042
630.949	-0.0202
631.284	-0.0113
631.618	-0.0051
631.953	0.0059
632.287	0.0024
632.621	-0.0081
632.955	-0.012
633.289	-0.012
633.623	-0.0086
633.957	-0.0096
634.291	-0.0104
634.625	-0.007
634.959	-0.0085
635.293	0.0028
635.627	0.0032
635.96	0.0051
636.294	-0.0022
636.627	-0.0019
636.961	0.0019
637.294	-0.002
637.628	-0.0103
637.961	-0.0135
638.295	-0.0076
638.628	0.0018
638.961	0.0041
639.294	0.0021
639.628	-0.0068
639.961	-0.0133
640.294	-0.0143
640.627	-0.0089
640.96	-0.0078
641.293	-0.0032
641.625	-0.0023
641.958	-0.0021
642.291	-0.0086
642.624	-0.009
642.956	-0.0079
643.289	-0.003
643.621	-0.0032
643.954	-0.002
644.286	-0.0011
644.619	-0.0006
644.951	-0.0026
645.283	-0.0051
645.616	-0.0014
645.948	0.0016
646.28	0.0048
646.612	-0.0015
646.944	-0.0016
647.276	-0.0065
647.608	-0.0015
647.94	-0.0034
648.272	-0.004
648.603	-0.0096
648.935	-0.0081
649.267	-0.006
649.598	-0.0046
649.93	-0.0106
650.261	-0.0075
650.593	0.0021
650.924	0.0176
651.256	0.0144
651.587	0.0042
651.918	-0.0055
652.25	-0.0088
652.581	-0.0084
652.912	-0.0128
653.243	-0.012
653.574	-0.0081
653.905	-0.0021
654.236	-0.0036
654.567	-0.0032
654.897	-0.006
655.228	-0.0045
655.559	0.0006
655.89	0.0055
656.22	-0.0005
656.551	-0.011
656.881	-0.0142
657.212	-0.0079
657.542	-0.0021
657.872	0.0045
658.203	0.0151
658.533	0.1276
658.863	0.0694
659.193	0.0116
659.523	-0.0475
659.853	-0.1065
660.183	-0.0619
660.513	-0.0276
660.843	-0.0168
661.173	-0.0082
661.503	-0.0087
661.833	-0.0053
662.162	-0.0073
662.492	-0.0056
662.822	-0.0074
663.151	-0.0091
663.481	-0.0066
663.81	-0.0043
664.139	0.0021
664.469	-0.0027
664.798	-0.0065
665.127	-0.0104
665.456	-0.0101
665.785	-0.0071
666.114	-0.0062
666.443	-0.0035
666.772	0.0002
667.101	0.0022
667.43	0.0005
667.759	-0.0011
668.088	-0.0036
668.416	-0.0093
668.745	-0.0091
669.074	-0.0081
669.402	0.0005
669.731	-0.0005
670.059	0.003
670.388	0.0016
670.716	0.0019
671.044	-0.0019
671.372	-0.0027
671.701	-0.0012
672.029	0.003
672.357	0.0039
672.685	0.0047
673.013	0.0037
673.341	-0.0038
673.669	-0.0091
673.996	-0.0103
674.324	0.0097
674.652	0.0114
674.98	0.0085
675.307	-0.0048
675.635	-0.0119
675.962	-0.0144
676.29	-0.0166
676.617	-0.0106
676.945	-0.0065
677.272	-0.0054
677.599	-0.0005
677.926	-0.0018
678.253	0.0005
678.581	-0.0079
678.908	-0.0043
679.235	0.0025
679.561	-0.0001
679.888	-0.0083
680.215	-0.0136
680.542	0.005
680.869	0.0038
681.195	-0.0016
681.522	-0.012
681.849	-0.0082
682.175	-0.0007
682.502	0.0018
682.828	-0.0017
683.154	-0.0116
683.481	-0.0157
683.807	-0.0128
684.133	0.0028
684.459	0.0021
684.785	0.0046
685.111	-0.0076
685.437	-0.0072
685.763	-0.0123
686.089	-0.0034
686.415	0.005
686.741	0.0047
687.067	0.0056
687.392	-0.0025
687.718	-0.0007
688.043	-0.0008
688.369	0.0011
688.694	-0.005
689.02	-0.0133
689.345	-0.0184
689.67	-0.0103
689.996	-0.0044
690.321	0.0003
690.646	-0.0073
690.971	-0.0085
691.296	-0.0092
691.621	-0.003
691.946	-0.0026
692.271	0.0018
692.596	-0.0004
692.921	-0.0036
693.245	-0.0134
693.57	-0.0066
693.895	0.0028
694.219	0.0081
694.544	-0.0039
694.868	-0.0101
695.193	-0.0104
695.517	-0.0028
695.841	-0.0016
696.166	-0.002
696.49	-0.0033
696.814	-0.0063
697.138	-0.0054
697.462	-0.0045
697.786	-0.0001
698.11	0.0065
698.434	0.0016
698.758	-0.0103
699.081	-0.0235
699.405	-0.0145
699.729	0.0186
700.052	0.0194
700.376	0.0076
700.7	-0.0142
701.023	-0.017
701.346	-0.0109
701.67	-0.0087
701.993	-0.0079
702.316	-0.0056
702.639	-0.0008
702.963	-0.003
703.286	-0.0049
703.609	-0.0028
703.932	-0.003
704.255	-0.0006
704.578	-0.0024
704.9	0.0051
705.223	0.005
705.546	0.0003
705.868	-0.007
706.191	-0.0112
706.514	-0.0103
706.836	-0.0082
707.159	-0.0003
707.481	0.0028
707.803	0.0008
708.126	-0.0048
708.448	-0.0053
708.77	-0.0003
709.092	0.0008
709.414	0.0087
709.736	0.0111
710.058	0.0043
710.38	-0.0075
710.702	-0.0147
711.024	-0.0127
711.345	-0.01
711.667	-0.0093
711.989	-0.0092
712.31	-0.0109
712.632	-0.0072
712.953	-0.0055
713.275	-0.0008
713.596	-0.0006
713.917	-0.0042
714.239	-0.0108
714.56	-0.0111
714.881	-0.005
715.202	0.0035
715.523	0.0121
715.844	0.006
716.165	0.0052
716.486	-0.0043
716.807	-0.003
717.128	-0.005
717.448	-0.0081
717.769	-0.0098
718.09	-0.0109
718.41	-0.0132
718.731	-0.0131
719.051	-0.0161
719.372	-0.0133
719.692	-0.0051
720.012	0.0011
720.332	-0.0008
720.653	-0.0015
720.973	0.0042
721.293	-0.0026
721.613	-0.008
721.933	-0.0143
722.253	-0.0016
722.573	-0.0085
722.892	-0.01
723.212	-0.0096
723.532	-0.0006
723.851	-0.0002
724.171	-0.0026
724.491	-0.0006
724.81	-0.0031
725.129	-0.0028
725.449	-0.0044
725.768	-0.0011
726.087	-0.0019
726.407	-0.0045
726.726	-0.0101
727.045	-0.0158
727.364	-0.0124
727.683	-0.0089
728.002	-0.0003
728.321	-0.0002
728.64	-0.0035
728.958	-0.0034
729.277	-0.0075
729.596	-0.0066
729.914	-0.0096
730.233	-0.0049
730.551	0.0009
730.87	-0.0013
731.188	-0.0051
731.507	-0.0096
731.825	-0.0123
732.143	-0.0085
732.461	-0.0065
732.779	-0.0058
733.097	-0.0063
733.415	0.0012
733.733	0.0131
734.051	0.0008
734.369	-0.0065
734.687	-0.0229
735.005	-0.0158
735.322	-0.0139
735.64	0.0034
735.957	0.0045
736.275	0.0037
736.592	-0.001
736.91	-0.0059
737.227	-0.0056
737.544	-0.0182
737.862	-0.014
738.179	-0.0133
738.496	-0.0002
738.813	-0.0048
739.13	-0.0162
739.447	-0.0212
739.764	-0.0115
740.081	-0.0021
740.398	-0.0044
740.714	-0.0069
741.031	-0.0073
741.348	-0.0031
741.664	0.0004
741.981	0.0108
742.297	0.0017
742.614	-0.0087
742.93	-0.0219
743.246	-0.0143
743.563	-0.0066
743.879	-0.0066
744.195	-0.0065
744.511	-0.0033
744.827	-0.0025
745.143	0.0078
745.459	0.0105
745.775	0.0114
746.091	0.0024
746.406	-0.0047
746.722	-0.0063
747.038	-0.0069
747.353	-0.0068
747.669	-0.0027
747.984	-0.0051
748.3	-0.0025
748.615	-0.0065
748.93	-0.0005
749.246	-0.0063
749.561	-0.0056
749.876	-0.0067
750.191	-0.0051
750.506	-0.0039
750.821	-0.0074
751.136	-0.0004
751.451	0.0034
751.766	-0.0012
752.08	-0.0028
752.395	-0.0042
752.71	0.0014
753.024	0.0006
753.339	-0.0008
753.653	-0.0017
753.968	0.002
754.282	0.0032
754.596	0.0015
754.911	-0.0058
755.225	0.0007
755.539	0.0005
755.853	0.0045
756.167	-0.0009
756.481	0.0017
756.795	-0.0033
757.109	-0.0058
757.423	-0.0083
757.736	-0.0053
758.05	-0.0077
758.364	-0.0018
758.677	-0.0059
758.991	-0.0053
759.304	-0.0026
759.618	0.007
759.931	0.0075
760.244	0.0085
760.558	-0.0035
760.871	-0.0063
761.184	-0.0201
761.497	-0.0153
761.81	-0.0102
762.123	0.0018
762.436	0.003
762.749	-0.0014
763.062	-0.0022
763.374	0.003
763.687	-0.0028
764	-0.0079
764.312	-0.0217
764.625	-0.0187
764.937	-0.0219
765.25	-0.0161
765.562	-0.0035
765.874	-0.0039
766.186	-0.0006
766.499	-0.0114
766.811	-0.0073
767.123	0.0031
767.435	0.0063
767.747	0.0046
768.059	-0.009
768.37	-0.0138
768.682	-0.014
768.994	-0.0129
769.306	-0.0108
769.617	-0.007
769.929	-0.007
770.24	-0.0043
770.552	0.0003
770.863	0.0046
771.174	0.0029
771.486	-0.0023
771.797	-0.0092
772.108	-0.0158
772.419	-0.023
772.73	-0.0154
773.041	-0.0077
773.352	-0.0038
773.663	-0.009
773.974	-0.0103
774.285	-0.0135
774.595	-0.0137
774.906	-0.0095
775.217	-0.0009
775.527	0.0022
775.838	-0.0014
776.148	-0.0009
776.458	0.0016
776.769	0.0003
777.079	-0.0025
777.389	-0.0023
777.699	0.0031
778.009	0.0029
778.319	0.0006
778.629	-0.0092
778.939	-0.01
779.249	-0.0094
779.559	-0.0064
779.869	-0.0097
780.178	-0.0103
780.488	-0.0136
780.798	-0.0087
781.107	-0.007
781.417	0.0061
781.726	0.0042
782.035	0.0081
782.345	0.0033
782.654	0.0036
782.963	0.0009
783.272	0.0014
783.581	0.0047
783.89	0.0045
784.199	-0.0027
784.508	-0.0098
784.817	-0.0214
785.126	-0.02
785.434	-0.0149
785.743	-0.0111
786.052	-0.0046
786.36	-0.012
786.669	-0.0107
786.977	-0.0131
787.285	-0.009
787.594	-0.0041
787.902	-0.0043
788.21	-0.0044
788.518	-0.0004
788.826	-0.0011
789.135	-0.0037
789.442	-0.0123
789.75	-0.0147
790.058	-0.0129
790.366	-0.0085
790.674	-0.0038
790.981	0.0024
791.289	0.0044
791.597	0.0008
791.904	-0.0066
792.212	-0.014
792.519	-0.0179
792.826	-0.0069
793.134	-0.0043
793.441	0.0022
793.748	-0.0019
794.055	0.0049
794.362	0.0036
794.669	-0.0053
794.976	-0.0052
795.283	-0.0078
795.59	0.0003
795.897	-0.0038
796.203	-0.0047
796.51	0.008
796.817	0.018
797.123	0.0105
797.43	-0.0032
797.736	-0.0151
798.042	-0.0174
798.349	-0.0174
798.655	-0.0216
798.961	-0.0108
799.267	-0.0097
799.573	-0.0054
799.879	-0.0054
800.185	0.001
800.491	-0.0034
800.797	-0.0066
801.103	-0.0135
801.408	-0.0105
801.714	-0.0042
802.02	-0.0062
802.325	-0.0023
802.631	-0.0101
802.936	-0.0031
803.242	-0.0055
803.547	-0.0018
803.852	-0.0027
804.157	-0.0069
804.462	-0.0092
804.768	-0.0131
805.073	-0.0037
805.378	0.0035
805.682	0.0048
805.987	0.003
806.292	-0.003
806.597	-0.0011
806.902	-0.0033
807.206	-0.0092
807.511	-0.0085
807.815	-0.0076
808.12	0.0032
808.424	0.0041
808.728	0.01
809.033	0.0125
809.337	0.0025
809.641	-0.0116
809.945	-0.0113
810.249	0.0006
810.553	0.0019
810.857	-0.0046
811.161	-0.0155
811.465	-0.0107
811.768	-0.0133
812.072	-0.0118
812.376	-0.0084
812.679	-0.0015
812.983	-0.0032
813.286	-0.003
813.59	-0.0065
813.893	-0.0002
814.196	-0.0119
814.499	-0.0116
814.803	-0.0104
815.106	-0.006
815.409	-0.0124
815.712	-0.014
816.015	-0.0066
816.318	0.0012
816.62	0.0023
816.923	-0.0108
817.226	-0.0205
817.528	-0.021
817.831	-0.0104
818.133	-0.0101
818.436	-0.008
818.738	-0.011
819.041	-0.0049
819.343	-0.0103
819.645	-0.0001
819.947	0.0033
820.249	0.0028
820.551	-0.0027
820.853	-0.009
821.155	-0.0079
821.457	-0.0112
821.759	-0.0123
822.061	-0.0131
822.362	-0.0111
822.664	-0.0013
822.966	0.012
823.267	0.007
823.569	-0.0012
823.87	-0.0174
824.171	-0.0209
824.473	-0.0204
824.774	-0.0183
825.075	-0.0113
825.376	-0.0073
825.677	-0.0005
825.978	-0.0005
826.279	-0.0016
826.58	-0.0072
826.881	-0.0045
827.181	-0.0122
827.482	-0.0134
827.783	-0.0157
828.083	-0.0044
828.384	0.0014
828.684	-0.0068
828.985	-0.0064
829.285	-0.0045
829.585	0.0062
829.885	0.0072
830.185	0.0094
830.486	0.0065
830.786	-0.0057
831.086	-0.0206
831.385	-0.0275
831.685	-0.0249
831.985	-0.0165
832.285	-0.0195
832.585	-0.0162
832.884	-0.0196
833.184	-0.0171
833.483	-0.0237
833.783	-0.0225
834.082	-0.0101
834.381	-0.001
834.681	0.0019
834.98	-0.0077
835.279	-0.0151
835.578	-0.0108
835.877	-0.016
836.176	-0.0144
836.475	-0.0165
836.774	-0.0063
837.072	-0.0005
837.371	0.0037
837.67	-0.0013
837.968	0.0004
838.267	-0.0017
838.565	-0.0062
838.864	-0.0152
839.162	-0.028
839.46	-0.0208
839.759	-0.0123
840.057	-0.0079
840.355	-0.0006
840.653	-0.0064
840.951	-0.0086
841.249	-0.021
841.547	-0.0207
841.845	-0.0088
842.142	-0.0024
842.44	0.0011
842.738	0.0027
843.035	0.0058
843.333	-0.0043
843.63	-0.0115
843.928	-0.0119
844.225	-0.0051
844.522	-0.0068
844.82	-0.0083
845.117	0.0031
845.414	0.0153
845.711	0.0144
846.008	0.0122
846.305	0.0051
846.602	0.0024
846.898	-0.0038
847.195	-0.0165
847.492	-0.0185
847.788	-0.0129
848.085	0.0058
848.382	0.0127
848.678	0.0001
848.974	-0.006
849.271	-0.0103
849.567	-0.0089
849.863	-0.0247
850.159	-0.0302
850.455	-0.0214
850.751	-0.0062
851.047	-0.0028
851.343	-0.0143
851.639	-0.0131
851.935	0.0009
852.23	0.0115
852.526	-0.005
852.822	-0.0056
853.117	-0.0119
853.413	-0.0015
853.708	-0.0117
854.003	-0.0101
854.299	-0.0281
854.594	-0.0269
854.889	-0.026
855.184	-0.0116
855.479	-0.0127
855.774	-0.0107
856.069	-0.0022
856.364	0.0022
856.659	0.012
856.954	0.0094
857.248	0.0042
857.543	-0.0126
857.837	-0.0289
858.132	-0.0099
858.426	-0.0177
858.721	-0.0038
859.015	-0.0157
859.309	0.0085
859.604	0.0008
859.898	-0.0096
860.192	-0.0107
860.486	-0.0128
860.78	-0.0168
861.074	-0.0229
861.367	-0.03
861.661	-0.0021
861.955	-0.0027
862.248	0.0201
862.542	-0.0099
862.836	0.0009
863.129	0.0117
863.422	0.0247
863.716	0.0149
864.009	0
864.302	0.0018
864.595	0.0024
864.889	-0.0038
865.182	0.0037
865.475	-0.006
865.767	0.0045
866.06	-0.0047
866.353	-0.0183
866.646	-0.0131
866.938	-0.0154
867.231	-0.0041
867.524	0.0054
867.816	0.0122
868.109	0.0202
868.401	-0.0151
868.693	-0.0127
868.985	-0.003
869.278	0.0176
869.57	0.0245
869.862	0.0086
870.154	-0.0022
870.446	0.0209
870.738	0.0226
871.029	0.033
871.321	-0.0189
871.613	-0.0158
871.904	-0.0497
872.196	-0.0373
872.487	-0.0655
872.779	-0.0423
873.07	-0.0236
873.362	-0.0097
873.653	-0.0145
873.944	-0.0356
874.235	-0.0265
874.526	-0.0174
874.817	-0.0069
875.108	-0.0328
875.399	-0.0156
875.69	-0.0212
875.981	0.0084
876.271	-0.0007
876.562	0.01
876.853	0.0045
877.143	-0.0235
877.434	-0.0287
877.724	-0.0269
878.014	0.0036
878.305	0.0125
878.595	0.013
878.885	-0.0284
879.175	-0.0232
879.465	-0.0086
879.755	0.0109
880.045	0.0052
880.335	-0.0043
880.624	0.0122
880.914	0.0122
